# time(us)	tip(nm)	Fts(nN)	Xb(nm)
1.855557784850606549e+04	2.864767068089485065e+02	-3.162919885746341332e-06	-3.796907218472267687e+01
1.855560034850605371e+04	2.871558859091537670e+02	-3.149773270528406387e-06	-3.796658203490443384e+01
1.855562249136318496e+04	2.878186854809696911e+02	-3.137022858113666640e-06	-3.796413634469944043e+01
1.855564463422031622e+04	2.884759323617969926e+02	-3.124455848481916683e-06	-3.796169552365768851e+01
1.855566677707744748e+04	2.891276359591635696e+02	-3.112069534945153718e-06	-3.795925954728627971e+01
1.855568891993457873e+04	2.897738132669271067e+02	-3.099861124045950445e-06	-3.795682839125927188e+01
1.855571141993456695e+04	2.904247769320812154e+02	-3.087635078800094900e-06	-3.795436293575030362e+01
1.855573356279169820e+04	2.910598925461624731e+02	-3.075776557168841865e-06	-3.795194142486909783e+01
1.855575570564882946e+04	2.916895737626679193e+02	-3.064087112564932716e-06	-3.794952466195682206e+01
1.855577784850596072e+04	2.923138622897003529e+02	-3.052563733974946623e-06	-3.794711262334162427e+01
1.855580034850594529e+04	2.929427435027347428e+02	-3.041021482442147789e-06	-3.794466649587305795e+01
1.855582249136307655e+04	2.935563029850547423e+02	-3.029823711640995912e-06	-3.794226391072190552e+01
1.855584463422020781e+04	2.941646178176972057e+02	-3.018782896788937929e-06	-3.793986597942584638e+01
1.855586677707733907e+04	2.947677412956260241e+02	-3.007896065324000744e-06	-3.793747267894144670e+01
1.855588891993447032e+04	2.953657271371451429e+02	-2.997160297426619735e-06	-3.793508398637785461e+01
1.855591141993445854e+04	2.959681499940040226e+02	-2.986403175253789372e-06	-3.793266146309973408e+01
1.855593356279158979e+04	2.965559374604148957e+02	-2.975963394617815195e-06	-3.793028199171474313e+01
1.855595570564872105e+04	2.971387413827180808e+02	-2.965666360497699815e-06	-3.792790706011881241e+01
1.855597784850585231e+04	2.977166067707992738e+02	-2.955509530963234819e-06	-3.792553664601971519e+01
1.855600034850584052e+04	2.982987754141040568e+02	-2.945330014930219016e-06	-3.792313260400697317e+01
1.855602249136297178e+04	2.988668008895706976e+02	-2.935448676680042790e-06	-3.792077123057654831e+01
1.855604463422010303e+04	2.994299914667010398e+02	-2.925700724883824543e-06	-3.791841430828229420e+01
1.855606677707723429e+04	2.999883679344011398e+02	-2.916084218890883470e-06	-3.791606181540797849e+01
1.855608891993436555e+04	3.005419430437325445e+02	-2.906597392792619243e-06	-3.791371373037773651e+01
1.855611141993435376e+04	3.010995327966750779e+02	-2.897088756642156056e-06	-3.791133226599099970e+01
1.855613356279148502e+04	3.016434306369274623e+02	-2.887858756670291701e-06	-3.790899300270609729e+01
1.855615570564861628e+04	3.021825109169557777e+02	-2.878754228056746817e-06	-3.790665808302508566e+01
1.855617784850574753e+04	3.027167486692516718e+02	-2.869774156603802238e-06	-3.790432748592190393e+01
1.855620034850573575e+04	3.032546065656579231e+02	-2.860775882148995387e-06	-3.790196370474663468e+01
1.855622249136286700e+04	3.037789635472001919e+02	-2.852044421418391987e-06	-3.789964175913318201e+01
1.855624463421999826e+04	3.042983405102152688e+02	-2.843435500654279785e-06	-3.789732407348629550e+01
1.855626677707712952e+04	3.048126713039431479e+02	-2.834948848627578901e-06	-3.789501062731036996e+01
1.855628891993426078e+04	3.053218798566858254e+02	-2.826584364186202192e-06	-3.789270140023888445e+01
1.855631141993424899e+04	3.058339663974703626e+02	-2.818210169932438762e-06	-3.789035922845612703e+01
1.855633356279138025e+04	3.063325781523526530e+02	-2.810092327059638964e-06	-3.788805844624006625e+01
1.855635570564851150e+04	3.068257823839047660e+02	-2.802097275682491073e-06	-3.788576182247118140e+01
1.855637784850564276e+04	3.073134679333568897e+02	-2.794225490266908763e-06	-3.788346933729031463e+01
1.855640034850563097e+04	3.078032447065074848e+02	-2.786353607342318698e-06	-3.788114409547171846e+01
1.855642249136276223e+04	3.082794381146928231e+02	-2.778732217514934248e-06	-3.787885989433945610e+01
1.855644463421989349e+04	3.087497384435843628e+02	-2.771236129679192434e-06	-3.787657977264172615e+01
1.855646677707702474e+04	3.092140116776703280e+02	-2.763866166255962135e-06	-3.787430371100941784e+01
1.855648891993415600e+04	3.096721205652666526e+02	-2.756623195354928371e-06	-3.787203169019278448e+01
1.855651141993414421e+04	3.101311604402625903e+02	-2.749394407502178759e-06	-3.786972714328051381e+01
1.855653356279127547e+04	3.105764162293125992e+02	-2.742410209119251937e-06	-3.786746321122283376e+01
1.855655570564840673e+04	3.110150850763496919e+02	-2.735555727593483511e-06	-3.786520326263439529e+01
1.855657784850553799e+04	3.114470277232355215e+02	-2.728831845681951977e-06	-3.786294727873517729e+01
1.855660034850552620e+04	3.118789063168002258e+02	-2.722134161308889930e-06	-3.786065894990176872e+01
1.855662249136265746e+04	3.122968750030044589e+02	-2.715676103820090021e-06	-3.785841090269275355e+01
1.855664463421978871e+04	3.127077155162389772e+02	-2.709351025810700697e-06	-3.785616676421962268e+01
1.855666677707691997e+04	3.131113040170083650e+02	-2.703159575800460336e-06	-3.785392651615652682e+01
1.855668891993405123e+04	3.135075229509578776e+02	-2.697102311691889542e-06	-3.785169014028848977e+01
1.855671141993403944e+04	3.139024700072525320e+02	-2.691085269546571074e-06	-3.784942164157809685e+01
1.855673356279117070e+04	3.142835033444499686e+02	-2.685299816920698673e-06	-3.784719301761955990e+01
1.855675570564830196e+04	3.146568587701441970e+02	-2.679649585115145996e-06	-3.784496821157949853e+01
1.855677784850543321e+04	3.150224516288199652e+02	-2.674134676992135990e-06	-3.784274720567896821e+01
1.855680034850542143e+04	3.153859125393120166e+02	-2.668669407069290736e-06	-3.784049425147616574e+01
1.855682249136255268e+04	3.157356372232806052e+02	-2.663427115842547892e-06	-3.783828085352393344e+01
1.855684463421968394e+04	3.160774036595016696e+02	-2.658319670494767632e-06	-3.783607120272916546e+01
1.855686677707681520e+04	3.164111675718114043e+02	-2.653346647223901287e-06	-3.783386528173543439e+01
1.855688891993394645e+04	3.167368950633850204e+02	-2.648507492087214534e-06	-3.783166307328939126e+01
1.855691141993393467e+04	3.170596200450792708e+02	-2.643726709040336129e-06	-3.782942913054040446e+01
1.855693356279106592e+04	3.173690836141425393e+02	-2.639155255224810666e-06	-3.782723435502736464e+01
1.855695570564819718e+04	3.176704697605698016e+02	-2.634715254442324853e-06	-3.782504324064035472e+01
1.855697784850532844e+04	3.179637840894870919e+02	-2.630405681023530162e-06	-3.782285577053221459e+01
1.855700034850531665e+04	3.182535759559904704e+02	-2.626159040819046996e-06	-3.782063673432193696e+01
1.855702249136244791e+04	3.185306684510479727e+02	-2.622108919798383731e-06	-3.781845656073037532e+01
1.855704463421957917e+04	3.187997563517645290e+02	-2.618185583020051903e-06	-3.781627998120237777e+01
1.855706677707671042e+04	3.190608762273149068e+02	-2.614387678126510612e-06	-3.781410697928471620e+01
1.855708891993384168e+04	3.193140703768278854e+02	-2.610713801706872956e-06	-3.781193753862034868e+01
1.855711141993382989e+04	3.195632783298883624e+02	-2.607106230395565167e-06	-3.780973673810725444e+01
1.855713356279096115e+04	3.198006404035526202e+02	-2.603678005630646411e-06	-3.780757442804446100e+01
1.855715570564809241e+04	3.200302295489910307e+02	-2.600369405350879583e-06	-3.780541563047566456e+01
1.855717784850522366e+04	3.202521014720636572e+02	-2.597178959873910893e-06	-3.780326032942328851e+01
1.855720034850521188e+04	3.204697052539133324e+02	-2.594056590400990632e-06	-3.780107383065647753e+01
1.855722249136234313e+04	3.206761899269438345e+02	-2.591099982943740600e-06	-3.779892553082930817e+01
1.855724463421947439e+04	3.208751262710269998e+02	-2.588257267911712756e-06	-3.779678067988635348e+01
1.855726677707660201e+04	3.210665672595926026e+02	-2.585527133615267495e-06	-3.779463926221809089e+01
1.855728891993373327e+04	3.212505627950502571e+02	-2.582908339848495504e-06	-3.779250126230499518e+01
1.855731141993372148e+04	3.214299467699963770e+02	-2.580360164665514864e-06	-3.779033226351965169e+01
1.855733356279085274e+04	3.215990662122734420e+02	-2.577962424746792728e-06	-3.778820110741877869e+01
1.855735570564798400e+04	3.217608637427359213e+02	-2.575672827272856807e-06	-3.778607332280290620e+01
1.855737784850511525e+04	3.219153689742756228e+02	-2.573490522714065436e-06	-3.778394889450751037e+01
1.855740034850510347e+04	3.220649201880976875e+02	-2.571382168803039079e-06	-3.778179362367088601e+01
1.855742249136223472e+04	3.222047857857929216e+02	-2.569414080664624144e-06	-3.777967591639652767e+01
1.855744463421936598e+04	3.223374065352910520e+02	-2.567551453975781706e-06	-3.777756152022791269e+01
1.855746677707649724e+04	3.224627831607651842e+02	-2.565793936933080151e-06	-3.777545042034550704e+01
1.855748891993362849e+04	3.225809086251705367e+02	-2.564141307752400481e-06	-3.777334260201415361e+01
1.855751141993361671e+04	3.226934965289728439e+02	-2.562569367816892745e-06	-3.777120413289514289e+01
1.855753356279074796e+04	3.227969498342187080e+02	-2.561128056517498221e-06	-3.776910288613303379e+01
1.855755570564787922e+04	3.228930842955790013e+02	-2.559791738215175094e-06	-3.776700487698388287e+01
1.855757784850501048e+04	3.229818628156988893e+02	-2.558560692532593225e-06	-3.776491009104558572e+01
1.855760034850499869e+04	3.230644932985915716e+02	-2.557418028697142877e-06	-3.776278480510067226e+01
1.855762249136212995e+04	3.231383019633952927e+02	-2.556400526105608277e-06	-3.776069647411309660e+01
1.855764463421926121e+04	3.232046047674907641e+02	-2.555489788136747693e-06	-3.775861132338862092e+01
1.855766677707639246e+04	3.232633415075209768e+02	-2.554686494931952449e-06	-3.775652933884888540e+01
1.855768891993352372e+04	3.233144480128388523e+02	-2.553991401584887329e-06	-3.775445050649472023e+01
1.855771141993351193e+04	3.233584936917276877e+02	-2.553396771645637967e-06	-3.775234135910926625e+01
1.855773356279064319e+04	3.233940098486651777e+02	-2.552922363336518634e-06	-3.775026883972412861e+01
1.855775570564777445e+04	3.234216871733246990e+02	-2.552558763792494978e-06	-3.774819943077594075e+01
1.855777784850490571e+04	3.234414547268203250e+02	-2.552306904309821949e-06	-3.774613311857840614e+01
1.855780034850489392e+04	3.234533667109867565e+02	-2.552166410322636772e-06	-3.774403663682434029e+01
1.855782249136202518e+04	3.234569757275016855e+02	-2.552142692775199848e-06	-3.774197652677456460e+01
1.855784463421915643e+04	3.234524699428726535e+02	-2.552233531040860951e-06	-3.773991947265779601e+01
1.855786677707628769e+04	3.234397877376623001e+02	-2.552439815087849620e-06	-3.773786546109224105e+01
1.855788891993341895e+04	3.234188722999427910e+02	-2.552762390981571516e-06	-3.773581447877072037e+01
1.855791141993340716e+04	3.233891334456828872e+02	-2.553210103079853059e-06	-3.773373350538777515e+01
1.855793356279053842e+04	3.233514702492189485e+02	-2.553769468659666936e-06	-3.773168859025408750e+01
1.855795570564766967e+04	3.233054406679050885e+02	-2.554447288438087203e-06	-3.772964666467480299e+01
1.855797784850480093e+04	3.232510159156306599e+02	-2.555244113211427411e-06	-3.772760771563712723e+01
1.855800034850478914e+04	3.231870934277307015e+02	-2.556176154744057334e-06	-3.772553891594025544e+01
1.855802249136192040e+04	3.231156917899214136e+02	-2.557214173637509935e-06	-3.772350592872311381e+01
1.855804463421905166e+04	3.230358635973522041e+02	-2.558372230128242689e-06	-3.772147587923447531e+01
1.855806677707618292e+04	3.229476183388234176e+02	-2.559650436069019230e-06	-3.771944875474835612e+01
1.855808891993331417e+04	3.228509758961893112e+02	-2.561048780932640498e-06	-3.771742454260908062e+01
1.855811141993330239e+04	3.227442046175009978e+02	-2.562592601039138836e-06	-3.771537065211158080e+01
1.855813356279043364e+04	3.226307356215551181e+02	-2.564232620751603788e-06	-3.771335227344398078e+01
1.855815570564756490e+04	3.225089929946177563e+02	-2.565991989975796069e-06	-3.771133676937287760e+01
1.855817784850469616e+04	3.223790384101089899e+02	-2.567870197908194024e-06	-3.770932412752019758e+01
1.855820034850468437e+04	3.222386497666873879e+02	-2.569899779541580474e-06	-3.770728194286301971e+01
1.855822249136181563e+04	3.220923659116870681e+02	-2.572015548700906392e-06	-3.770527503425321925e+01
1.855824463421894689e+04	3.219381137614831800e+02	-2.574247916273772930e-06	-3.770327095093787051e+01
1.855826677707607814e+04	3.217759913549011799e+02	-2.576595929409595043e-06	-3.770126968080935370e+01
1.855828891993320940e+04	3.216061041524951634e+02	-2.579058544889217279e-06	-3.769927121182630714e+01
1.855831141993319761e+04	3.214256385907074787e+02	-2.581677112819853115e-06	-3.769724336641950657e+01
1.855833356279032887e+04	3.212404431083856480e+02	-2.584367295658595044e-06	-3.769525050856346837e+01
1.855835570564746013e+04	3.210478371082756439e+02	-2.587168497170639392e-06	-3.769326041593165399e+01
1.855837784850459138e+04	3.208479468235398713e+02	-2.590079425663874137e-06	-3.769127307674465754e+01
1.855840034850457960e+04	3.206375037592851527e+02	-2.593148340457239201e-06	-3.768925649205391437e+01
1.855842249136171085e+04	3.204233208366380836e+02	-2.596276462488428826e-06	-3.768727466861306397e+01
1.855844463421884211e+04	3.202022459107712962e+02	-2.599510299362930365e-06	-3.768529556347592546e+01
1.855846677707597337e+04	3.199744091942219484e+02	-2.602848531796846519e-06	-3.768331916511846202e+01
1.855848891993310463e+04	3.197399391451274937e+02	-2.606289871038616797e-06	-3.768134546207920721e+01
1.855851141993309284e+04	3.194950220113700539e+02	-2.609891050338039550e-06	-3.767934267425914641e+01
1.855853356279022410e+04	3.192475563294493099e+02	-2.613536547936807174e-06	-3.767737437073410689e+01
1.855855570564735535e+04	3.189938235262189892e+02	-2.617281599641774178e-06	-3.767540872833335897e+01
1.855857784850448661e+04	3.187339346893105017e+02	-2.621125185816668057e-06	-3.767344573584293244e+01
1.855860034850447482e+04	3.184636558707637732e+02	-2.625130750720772545e-06	-3.767145378506329223e+01
1.855862249136160608e+04	3.181916656496189262e+02	-2.629170317517112306e-06	-3.766949610128509818e+01
1.855864463421873734e+04	3.179138112385867885e+02	-2.633306001169198126e-06	-3.766754103396046816e+01
1.855866677707586859e+04	3.176301727779908788e+02	-2.637537254334490330e-06	-3.766558857211688860e+01
1.855868891993299985e+04	3.173408212328454283e+02	-2.641863671257689547e-06	-3.766363870484098442e+01
1.855871141993298806e+04	3.170410138825967579e+02	-2.646357083315572336e-06	-3.766166003459178313e+01
1.855873356279011568e+04	3.167403206267437099e+02	-2.650874739159969218e-06	-3.765971536535667497e+01
1.855875570564724694e+04	3.164340694982027458e+02	-2.655487255175705827e-06	-3.765777325812799603e+01
1.855877784850437820e+04	3.161222919480778160e+02	-2.660194848932838559e-06	-3.765583370222644533e+01
1.855880034850436641e+04	3.157998470107989988e+02	-2.665076152557885972e-06	-3.765386546561137493e+01
1.855882249136149767e+04	3.154769829110345540e+02	-2.669976751323958660e-06	-3.765193102127798852e+01
1.855884463421862893e+04	3.151486280491711796e+02	-2.674974054025874652e-06	-3.764999909640786058e+01
1.855886677707576018e+04	3.148147756507374879e+02	-2.680068913002641225e-06	-3.764806968055012248e+01
1.855888891993289144e+04	3.144754104591265786e+02	-2.685262328420213548e-06	-3.764614276330988929e+01
1.855891141993287965e+04	3.141249009046945275e+02	-2.690641637773352801e-06	-3.764418731550489383e+01
1.855893356279001091e+04	3.137743435158945999e+02	-2.696037360661432463e-06	-3.764226540442111713e+01
1.855895570564714217e+04	3.134181825831101378e+02	-2.701535473077046248e-06	-3.764034596093837592e+01
1.855897784850427342e+04	3.130563757884397091e+02	-2.707137483886577112e-06	-3.763842897488340355e+01
1.855900034850426164e+04	3.126829018475289672e+02	-2.712937931891267077e-06	-3.763648357647922182e+01
1.855902249136139289e+04	3.123095657437778527e+02	-2.718754394149614467e-06	-3.763457151420504232e+01
1.855904463421852415e+04	3.119304320105351849e+02	-2.724679854579434398e-06	-3.763266187900240567e+01
1.855906677707565541e+04	3.115454456214659444e+02	-2.730716140464431616e-06	-3.763075466091424914e+01
1.855908891993278667e+04	3.111545508942169818e+02	-2.736865123020780484e-06	-3.762884985003654492e+01
1.855911141993277488e+04	3.107512423913118482e+02	-2.743230677676474448e-06	-3.762691677202044360e+01
1.855913356278990614e+04	3.103482688729191068e+02	-2.749612663784653405e-06	-3.762501678449137898e+01
1.855915570564703739e+04	3.099392252559071608e+02	-2.756113106443988908e-06	-3.762311917461916266e+01
1.855917784850416865e+04	3.095240631969321043e+02	-2.762733904573064790e-06	-3.762122393270964693e+01
1.855920034850415686e+04	3.090958922084630558e+02	-2.769586698234595039e-06	-3.761930053801232532e+01
1.855922249136128812e+04	3.086682652845190660e+02	-2.776455790274322151e-06	-3.761741004095593155e+01
1.855924463421841938e+04	3.082344024143932870e+02	-2.783450736311299143e-06	-3.761552188293413224e+01
1.855926677707555064e+04	3.077942764997948188e+02	-2.790573241955845166e-06	-3.761363605445771441e+01
1.855928891993268189e+04	3.073478673727792057e+02	-2.797824936185200743e-06	-3.761175254608779284e+01
1.855931141993267011e+04	3.068878089406338177e+02	-2.805327513103521633e-06	-3.760984102542164464e+01
1.855933356278980136e+04	3.064287012352165789e+02	-2.812844264391008239e-06	-3.760796216619025500e+01
1.855935570564693262e+04	3.059632957086461715e+02	-2.820494568955515130e-06	-3.760608559889782043e+01
1.855937784850406388e+04	3.054916037156428956e+02	-2.828279671475279652e-06	-3.760421131430439345e+01
1.855940034850405209e+04	3.050058846088390396e+02	-2.836329587994268580e-06	-3.760230912807164572e+01
1.855942249136118335e+04	3.045215862127745368e+02	-2.844389807942048242e-06	-3.760043941779855459e+01
1.855944463421831460e+04	3.040310849970645108e+02	-2.852587928385160549e-06	-3.759857196264995594e+01
1.855946677707544586e+04	3.035344244517972925e+02	-2.860924763787872081e-06	-3.759670675358017888e+01
1.855948891993257712e+04	3.030316553333265688e+02	-2.869401027272249543e-06	-3.759484378159118023e+01
1.855951141993256533e+04	3.025145791437998355e+02	-2.878157459784254868e-06	-3.759295304394417059e+01
1.855953356278969659e+04	3.019996755991832629e+02	-2.886916615309738848e-06	-3.759109455503334374e+01
1.855955570564682785e+04	3.014788550375542400e+02	-2.895816803189285549e-06	-3.758923827635010184e+01
1.855957784850395910e+04	3.009521914448217217e+02	-2.904858404597488373e-06	-3.758738419908516448e+01
1.855960034850394732e+04	3.004111283369200009e+02	-2.914191026124062627e-06	-3.758550246328871225e+01
1.855962249136107857e+04	2.998729243132219153e+02	-2.923518680069067112e-06	-3.758365279777092383e+01
1.855964463421820983e+04	2.993291203240345908e+02	-2.932988613463121410e-06	-3.758180530738070502e+01
1.855966677707534109e+04	2.987798004397145633e+02	-2.942601068196456224e-06	-3.757995998349303335e+01
1.855968891993247234e+04	2.982250488282042511e+02	-2.952356290485747498e-06	-3.757811681752814792e+01
1.855971141993246056e+04	2.976558715037842830e+02	-2.962415371120786650e-06	-3.757624612470207381e+01
1.855973356278959182e+04	2.970904200225062368e+02	-2.972459285721982856e-06	-3.757440728348437631e+01
1.855975570564672307e+04	2.965197811414508919e+02	-2.982646913177218207e-06	-3.757257057458318172e+01
1.855977784850385433e+04	2.959440294099248376e+02	-2.992978694349583604e-06	-3.757073598959771488e+01
1.855980034850384254e+04	2.953538259701957145e+02	-3.003625328102134706e-06	-3.756887398150298907e+01
1.855982249136097380e+04	2.947679723651096992e+02	-3.014249481621228474e-06	-3.756704365324231532e+01
1.855984463421810506e+04	2.941771983113367810e+02	-3.025019757213944677e-06	-3.756521542382483148e+01
1.855986677707523631e+04	2.935815541427051016e+02	-3.035937076761141947e-06	-3.756338928502473351e+01
1.855988891993236757e+04	2.929810823324955322e+02	-3.047002522998532675e-06	-3.756156522865923364e+01
