# time(us)	tip(nm)	Fts(nN)	Xb(nm)
1.855557784850606549e+04	3.273342268164718689e+02	-2.521242913145296877e-06	-3.608651483134103444e+01
1.855560034850605371e+04	3.282080564948243477e+02	-2.509200600587984545e-06	-3.608407316457365965e+01
1.855562249136318496e+04	3.290624306637497511e+02	-2.497509743547373968e-06	-3.608167532515800247e+01
1.855564463422031622e+04	3.299111607943344779e+02	-2.485976944154443549e-06	-3.607928248966999263e+01
1.855566677707744748e+04	3.307541444761469620e+02	-2.474601242899256812e-06	-3.607689463219654158e+01
1.855568891993457873e+04	3.315912809557826222e+02	-2.463381669029565148e-06	-3.607451172701102138e+01
1.855571141993456695e+04	3.324358292718653161e+02	-2.452140034297620224e-06	-3.607209543431317655e+01
1.855573356279169820e+04	3.332608828556141702e+02	-2.441232170140967075e-06	-3.606972243610748308e+01
1.855575570564882946e+04	3.340798059797001542e+02	-2.430477309894807321e-06	-3.606735431370413636e+01
1.855577784850596072e+04	3.348925148180466635e+02	-2.419874316727138307e-06	-3.606499104210539031e+01
1.855580034850594529e+04	3.357118867879007666e+02	-2.409254630301706695e-06	-3.606259459645557541e+01
1.855582249136307655e+04	3.365118390455779149e+02	-2.398954091522194371e-06	-3.606024102941691467e+01
1.855584463422020781e+04	3.373053662638860146e+02	-2.388801569465392912e-06	-3.605789223884811889e+01
1.855586677707733907e+04	3.380924146545497138e+02	-2.378795630019542767e-06	-3.605554820044919495e+01
1.855588891993447032e+04	3.388729392361781834e+02	-2.368934755562253973e-06	-3.605320889008942231e+01
1.855591141993445854e+04	3.396593335283100146e+02	-2.359061778218215639e-06	-3.605083666728209124e+01
1.855593356279158979e+04	3.404266057680885069e+02	-2.349488417033555983e-06	-3.604850681657054423e+01
1.855595570564872105e+04	3.411872743060246762e+02	-2.340055037666049642e-06	-3.604618162212364041e+01
1.855597784850585231e+04	3.419413313330745723e+02	-2.330759794436965915e-06	-3.604386106047248006e+01
1.855600034850584052e+04	3.427007795920293347e+02	-2.321454148149093294e-06	-3.604150779188688603e+01
1.855602249136297178e+04	3.434415198604955890e+02	-2.312431504000842815e-06	-3.603919649984590734e+01
1.855604463422010303e+04	3.441756786710815277e+02	-2.303541015318606647e-06	-3.603688977078169842e+01
1.855606677707723429e+04	3.449032823090346938e+02	-2.294780586642166296e-06	-3.603458758186052791e+01
1.855608891993436555e+04	3.456243641853395729e+02	-2.286148081312860348e-06	-3.603228991040295170e+01
1.855611141993435376e+04	3.463504370159826067e+02	-2.277505144495232454e-06	-3.602995978387475873e+01
1.855613356279148502e+04	3.470584968408595614e+02	-2.269123937681495942e-06	-3.602767115187037916e+01
1.855615570564861628e+04	3.477601707830525015e+02	-2.260864066603870662e-06	-3.602538696984365885e+01
1.855617784850574753e+04	3.484555124583963561e+02	-2.252723337757825449e-06	-3.602310721571900132e+01
1.855620034850573575e+04	3.491556409021714558e+02	-2.244571103857564497e-06	-3.602079520438883975e+01
1.855622249136286700e+04	3.498383882728163599e+02	-2.236663986283756168e-06	-3.601852431096220641e+01
1.855624463421999826e+04	3.505149762207789195e+02	-2.228869536377090582e-06	-3.601625777973779208e+01
1.855626677707712952e+04	3.511854620188311173e+02	-2.221185694680892090e-06	-3.601399558922071975e+01
1.855628891993426078e+04	3.518499010368060453e+02	-2.213610464661484579e-06	-3.601173771805727597e+01
1.855631141993424899e+04	3.525189168483304343e+02	-2.206022327416312380e-06	-3.600944783218676548e+01
1.855633356279138025e+04	3.531713197048871393e+02	-2.198660313901873824e-06	-3.600719860504019465e+01
1.855635570564851150e+04	3.538178200908380404e+02	-2.191401379670865256e-06	-3.600495363368291635e+01
1.855637784850564276e+04	3.544584548130181929e+02	-2.184243885028907581e-06	-3.600271289731472280e+01
1.855640034850563097e+04	3.551034445668311719e+02	-2.177073279869860944e-06	-3.600044033675514044e+01
1.855642249136276223e+04	3.557323354445803147e+02	-2.170115773112829155e-06	-3.599820807597576788e+01
1.855644463421989349e+04	3.563554252276754255e+02	-2.163255457964361616e-06	-3.599597998825945666e+01
1.855646677707702474e+04	3.569727173607119539e+02	-2.156491176226370601e-06	-3.599375605333906947e+01
1.855648891993415600e+04	3.575842053140726762e+02	-2.149821900743566576e-06	-3.599153625107719279e+01
1.855651141993414421e+04	3.581995931143354142e+02	-2.143141453180587201e-06	-3.598928485812755440e+01
1.855653356279127547e+04	3.587993164697634825e+02	-2.136661141590024284e-06	-3.598707332713369311e+01
1.855655570564840673e+04	3.593931515991321817e+02	-2.130273545139813189e-06	-3.598486586883515059e+01
1.855657784850553799e+04	3.599810486100010394e+02	-2.123978169624346523e-06	-3.598266246360383036e+01
1.855660034850552620e+04	3.605722825257618069e+02	-2.117675343179166621e-06	-3.598042765114546881e+01
1.855662249136265746e+04	3.611480112530067572e+02	-2.111564910475939144e-06	-3.597823235824569821e+01
1.855664463421978871e+04	3.617175856257892406e+02	-2.105545963788194622e-06	-3.597604105995869617e+01
1.855666677707691997e+04	3.622809131613638556e+02	-2.099618491397040377e-06	-3.597385373714764256e+01
1.855668891993405123e+04	3.628378918323410289e+02	-2.093782585137620413e-06	-3.597167037079555030e+01
1.855671141993403944e+04	3.633972364779643840e+02	-2.087946537454949962e-06	-3.596945582208973491e+01
1.855673356279117070e+04	3.639410694105513926e+02	-2.082295896408621287e-06	-3.596728037513067733e+01
1.855675570564830196e+04	3.644781950973112430e+02	-2.076737634735598451e-06	-3.596510882798698816e+01
1.855677784850543321e+04	3.650084807838190954e+02	-2.071272166059174158e-06	-3.596294116211199565e+01
1.855680034850542143e+04	3.655401708956429729e+02	-2.065814075925400971e-06	-3.596074249057792116e+01
1.855682249136255268e+04	3.660562421500730466e+02	-2.060537153237250536e-06	-3.595858259391653178e+01
1.855684463421968394e+04	3.665650453146764676e+02	-2.055354547910327718e-06	-3.595642652327481414e+01
1.855686677707681520e+04	3.670664330548961516e+02	-2.050266817981937234e-06	-3.595427426056055964e+01
1.855688891993394645e+04	3.675602573136714568e+02	-2.045274528081813282e-06	-3.595212578779234036e+01
1.855691141993393467e+04	3.680541470501598269e+02	-2.040300055177660992e-06	-3.594994652596469109e+01
1.855693356279106592e+04	3.685322753686238570e+02	-2.035501869697415733e-06	-3.594780563999155731e+01
1.855695570564819718e+04	3.690024013754561452e+02	-2.030800752058027555e-06	-3.594566849039215839e+01
1.855697784850532844e+04	3.694643860727023821e+02	-2.026197180906634116e-06	-3.594353505962095596e+01
1.855700034850531665e+04	3.699253449396790643e+02	-2.021619722095562698e-06	-3.594137101000065826e+01
1.855702249136244791e+04	3.703705149496486229e+02	-2.017214072171805966e-06	-3.593924502395252318e+01
1.855704463421957917e+04	3.708071595007393171e+02	-2.012907092679967268e-06	-3.593712270445350754e+01
1.855706677707671042e+04	3.712351661007256780e+02	-2.008699023454008690e-06	-3.593500403437984403e+01
1.855708891993384168e+04	3.716544310674647704e+02	-2.004590027169257271e-06	-3.593288899671081538e+01
1.855711141993382989e+04	3.720714071642870522e+02	-2.000516322003161413e-06	-3.593074354886582000e+01
1.855713356279096115e+04	3.724727719155775389e+02	-1.996607225381755554e-06	-3.592863578325697915e+01
1.855715570564809241e+04	3.728651421337847296e+02	-1.992797179325605223e-06	-3.592653159933088602e+01
1.855717784850522366e+04	3.732484553707114969e+02	-1.989085996757088385e-06	-3.592443098047201033e+01
1.855720034850521188e+04	3.736286210017083249e+02	-1.985415937469014615e-06	-3.592230011543733070e+01
1.855722249136234313e+04	3.739935297461785240e+02	-1.981903136299383345e-06	-3.592020663409671499e+01
1.855724463421947439e+04	3.743492608599242999e+02	-1.978488084393295782e-06	-3.591811666830439265e+01
1.855726677707660201e+04	3.746957966865676894e+02	-1.975170235652082679e-06	-3.591603020183737272e+01
1.855728891993373327e+04	3.750331303324101668e+02	-1.971948961527240067e-06	-3.591394721856855199e+01
1.855731141993372148e+04	3.753664824461213811e+02	-1.968773927497619652e-06	-3.591183419020764234e+01
1.855733356279085274e+04	3.756852839950407770e+02	-1.965745139243982367e-06	-3.590975818086847937e+01
1.855735570564798400e+04	3.759949231297475762e+02	-1.962810584108587862e-06	-3.590768560665923559e+01
1.855737784850511525e+04	3.762954310325914662e+02	-1.959969360171622535e-06	-3.590561645183045414e+01
1.855740034850510347e+04	3.765914725538376615e+02	-1.957176931313980652e-06	-3.590351740996506180e+01
1.855742249136223472e+04	3.768736958717080938e+02	-1.954520939976378610e-06	-3.590145510153806185e+01
1.855744463421936598e+04	3.771469248389526001e+02	-1.951955294989010008e-06	-3.589939616554530488e+01
1.855746677707649724e+04	3.774112158279449432e+02	-1.949478949701791688e-06	-3.589734058660375382e+01
1.855748891993362849e+04	3.776666289501202982e+02	-1.947090845235027603e-06	-3.589528834941999236e+01
1.855751141993361671e+04	3.779171324702249422e+02	-1.944753517330744177e-06	-3.589320641902011033e+01
1.855753356279074796e+04	3.781548390723781381e+02	-1.942540099363139030e-06	-3.589116087311312953e+01
1.855755570564787922e+04	3.783838606510097975e+02	-1.940411755333063582e-06	-3.588911862337238290e+01
1.855757784850501048e+04	3.786042612602589656e+02	-1.938367477299496893e-06	-3.588707965485740914e+01
1.855760034850499869e+04	3.788194502034757534e+02	-1.936375337984957021e-06	-3.588501114549356430e+01
1.855762249136212995e+04	3.790226563717944259e+02	-1.934497642655185901e-06	-3.588297874727780368e+01
1.855764463421926121e+04	3.792174199872015947e+02	-1.932701232608947190e-06	-3.588094958574536264e+01
1.855766677707639246e+04	3.794037920167033917e+02	-1.930985300140306196e-06	-3.587892364629860964e+01
1.855768891993352372e+04	3.795818178778737888e+02	-1.929349106897208149e-06	-3.587690091442355822e+01
1.855771141993351193e+04	3.797542061940492317e+02	-1.927767520089928972e-06	-3.587484882857152968e+01
1.855773356279064319e+04	3.799155168301361982e+02	-1.926290160094734677e-06	-3.587283251978416132e+01
1.855775570564777445e+04	3.800685774795509815e+02	-1.924890791837402326e-06	-3.587081937529433162e+01
1.855777784850490571e+04	3.802134046278608253e+02	-1.923569010004148894e-06	-3.586880938091865545e+01
1.855780034850489392e+04	3.803521422953970728e+02	-1.922305060162846253e-06	-3.586677017949242696e+01
1.855782249136202518e+04	3.804803856537590150e+02	-1.921138845106064515e-06	-3.586476649335839539e+01
1.855784463421915643e+04	3.806003940549945241e+02	-1.920049554417978798e-06	-3.586276591504733346e+01
1.855786677707628769e+04	3.807121497408336950e+02	-1.919037155725583630e-06	-3.586076843069738374e+01
1.855788891993341895e+04	3.808156265060945316e+02	-1.918101707844020317e-06	-3.585877402652518242e+01
1.855791141993340716e+04	3.809122565237264553e+02	-1.917230146617799914e-06	-3.585675059552884392e+01
1.855793356279053842e+04	3.809989293928694565e+02	-1.916450376365874372e-06	-3.585476235980214454e+01
1.855795570564766967e+04	3.810771965385901581e+02	-1.915748253618713682e-06	-3.585277716315157193e+01
1.855797784850480093e+04	3.811470017813749678e+02	-1.915124165765541582e-06	-3.585079499210416287e+01
1.855800034850478914e+04	3.812092012023923076e+02	-1.914570414011341232e-06	-3.584878393595627699e+01
1.855802249136192040e+04	3.812617520350647737e+02	-1.914105101019406156e-06	-3.584680782425962065e+01
1.855804463421905166e+04	3.813056389519264258e+02	-1.913719372126521270e-06	-3.584483469798747279e+01
1.855806677707618292e+04	3.813407871374682827e+02	-1.913413840910206344e-06	-3.584286454396868038e+01
1.855808891993331417e+04	3.813671195147016988e+02	-1.913189156224618106e-06	-3.584089734910594416e+01
1.855811141993330239e+04	3.813847657488820460e+02	-1.913044355656635827e-06	-3.583890144301510361e+01
1.855813356279043364e+04	3.813930861930413130e+02	-1.912984736740719561e-06	-3.583694017466918780e+01
1.855815570564756490e+04	3.813923555098191400e+02	-1.913008039790880786e-06	-3.583498182641866237e+01
1.855817784850469616e+04	3.813824984395673141e+02	-1.913114959729633862e-06	-3.583302638545786323e+01
1.855820034850468437e+04	3.813630598427922109e+02	-1.913309957318277687e-06	-3.583104237001858650e+01
1.855822249136181563e+04	3.813345882134139515e+02	-1.913587510658612577e-06	-3.582909275188460185e+01
1.855824463421894689e+04	3.812967870865749660e+02	-1.913950661057789536e-06	-3.582714600284781881e+01
1.855826677707607814e+04	3.812496005279158453e+02	-1.914399995952965771e-06	-3.582520211038661273e+01
1.855828891993320940e+04	3.811929798909015972e+02	-1.914936054151544570e-06	-3.582326106204898508e+01
1.855831141993319761e+04	3.811257407958375438e+02	-1.915570087829859292e-06	-3.582129160703100723e+01
1.855833356279032887e+04	3.810499858863464056e+02	-1.916282393283641002e-06	-3.581935625523441757e+01
1.855835570564746013e+04	3.809647025595448895e+02	-1.917082678628395411e-06	-3.581742371042106043e+01
1.855837784850459138e+04	3.808698791752820512e+02	-1.917971217570235056e-06	-3.581549396041359046e+01
1.855840034850457960e+04	3.807637532993446712e+02	-1.918964687845236477e-06	-3.581353593572071503e+01
1.855842249136171085e+04	3.806497042382493987e+02	-1.920031663061117257e-06	-3.581161178365143627e+01
1.855844463421884211e+04	3.805261457968148875e+02	-1.921187223721263640e-06	-3.580969039006548371e+01
1.855846677707597337e+04	3.803931107146138402e+02	-1.922431307923593892e-06	-3.580777174305308819e+01
1.855848891993310463e+04	3.802506430349722564e+02	-1.923763766654289930e-06	-3.580585583077016310e+01
1.855851141993309284e+04	3.800962723457058132e+02	-1.925207997974208491e-06	-3.580391180579405841e+01
1.855853356279022410e+04	3.799349663558334669e+02	-1.926717828217487561e-06	-3.580200137133155636e+01
1.855855570564735535e+04	3.797644269127941357e+02	-1.928315068496516156e-06	-3.580009363626778196e+01
1.855857784850448661e+04	3.795847406939669781e+02	-1.929999237737305158e-06	-3.579818858901757039e+01
1.855860034850447482e+04	3.793928859582164250e+02	-1.931799043442517007e-06	-3.579625555652467739e+01
1.855862249136160608e+04	3.791950594101490992e+02	-1.933656718634106359e-06	-3.579435589328741685e+01
1.855864463421873734e+04	3.789884009343340381e+02	-1.935599453807676166e-06	-3.579245888330434866e+01
1.855866677707586859e+04	3.787730298531420203e+02	-1.937626513058583999e-06	-3.579056451524282778e+01
1.855868891993299985e+04	3.785490713313847664e+02	-1.939737115718827199e-06	-3.578867277783211875e+01
1.855871141993298806e+04	3.783128380995121915e+02	-1.941966494810439435e-06	-3.578675321162201328e+01
1.855873356279011568e+04	3.780719650750646679e+02	-1.944243021843640208e-06	-3.578486674392437550e+01
1.855875570564724694e+04	3.778229065448362576e+02	-1.946600559148535846e-06	-3.578298287325429072e+01
1.855877784850437820e+04	3.775658000218302845e+02	-1.949038240726972918e-06	-3.578110158858553547e+01
1.855880034850436641e+04	3.772964446303110435e+02	-1.951596446024696626e-06	-3.577919259822481735e+01
1.855882249136149767e+04	3.770235297770735201e+02	-1.954193104017668513e-06	-3.577731649398752012e+01
1.855884463421862893e+04	3.767429777495507892e+02	-1.956867363111328229e-06	-3.577544294285669935e+01
1.855886677707576018e+04	3.764549195345406361e+02	-1.959618438290789394e-06	-3.577357193404470337e+01
1.855888891993289144e+04	3.761594816498748060e+02	-1.962445590766067652e-06	-3.577170345682233688e+01
1.855891141993287965e+04	3.758518440580574520e+02	-1.965395567438374672e-06	-3.576980742504837707e+01
1.855893356279001091e+04	3.755418890378246601e+02	-1.968374093289742457e-06	-3.576794401945166868e+01
1.855895570564714217e+04	3.752248986748010111e+02	-1.971426845470468101e-06	-3.576608311343425584e+01
1.855897784850427342e+04	3.749009717782770394e+02	-1.974553364894063535e-06	-3.576422469649806857e+01
1.855900034850426164e+04	3.745648075417051928e+02	-1.977805493822082595e-06	-3.576233884396720697e+01
1.855902249136139289e+04	3.742271592379774461e+02	-1.981079714531241988e-06	-3.576048541365134525e+01
1.855904463421852415e+04	3.738828161312771385e+02	-1.984426888140205264e-06	-3.575863444109501188e+01
1.855906677707565541e+04	3.735318380745420654e+02	-1.987846952407969088e-06	-3.575678591602562761e+01
1.855908891993278667e+04	3.731742743027149913e+02	-1.991339955323032622e-06	-3.575493982822593608e+01
1.855911141993277488e+04	3.728042370703391839e+02	-1.994964175689678917e-06	-3.575306645090425661e+01
1.855913356278990614e+04	3.724335016428753988e+02	-1.998604838153604968e-06	-3.575122524611293784e+01
1.855915570564703739e+04	3.720562641159839927e+02	-2.002319270510182024e-06	-3.574938644810616495e+01
1.855917784850416865e+04	3.716725311415692659e+02	-2.006107976518837616e-06	-3.574755004688537952e+01
1.855920034850415686e+04	3.712759520322662183e+02	-2.010034504533384310e-06	-3.574568647113314057e+01
1.855922249136128812e+04	3.708791035641396547e+02	-2.013974936086403964e-06	-3.574385487195981170e+01
1.855924463421841938e+04	3.704757214574931936e+02	-2.017991818987766793e-06	-3.574202563973889113e+01
1.855926677707555064e+04	3.700657757402837547e+02	-2.022086079129429692e-06	-3.574019876468522483e+01
1.855928891993268189e+04	3.696492290658502498e+02	-2.026258734246113047e-06	-3.573837423706596894e+01
1.855931141993267011e+04	3.692191572004231830e+02	-2.030580127702849410e-06	-3.573652267614503586e+01
1.855933356278980136e+04	3.687891631077586112e+02	-2.034914268019115283e-06	-3.573470285187565310e+01
1.855935570564693262e+04	3.683524199421252092e+02	-2.039330352677272818e-06	-3.573288534599903699e+01
1.855937784850406388e+04	3.679088701889282902e+02	-2.043829688532671000e-06	-3.573107014898938161e+01
1.855940034850405209e+04	3.674511325436552625e+02	-2.048488266833271155e-06	-3.572922802987815061e+01
1.855942249136118335e+04	3.669936763034735918e+02	-2.053159609739126039e-06	-3.572741745908587774e+01
1.855944463421831460e+04	3.665292299167695091e+02	-2.057918400001029635e-06	-3.572560916873598558e+01
1.855946677707544586e+04	3.660577328848656862e+02	-2.062766078488390676e-06	-3.572380314950475366e+01
1.855948891993257712e+04	3.655791267069744777e+02	-2.067704093224082186e-06	-3.572199939211810715e+01
1.855951141993256533e+04	3.650854619103375285e+02	-2.072815774751238733e-06	-3.572016884923148439e+01
1.855953356278969659e+04	3.645923583153438585e+02	-2.077940298018703658e-06	-3.571836962401835081e+01
1.855955570564682785e+04	3.640919915375069991e+02	-2.083159464501311938e-06	-3.571657263297532126e+01
1.855957784850395910e+04	3.635843210637781340e+02	-2.088474649501979507e-06	-3.571477786702455148e+01
1.855960034850394732e+04	3.630609461456071472e+02	-2.093975291057827394e-06	-3.571295642315143226e+01
1.855962249136107857e+04	3.625384550035656730e+02	-2.099488067548913340e-06	-3.571116611586837308e+01
1.855964463421820983e+04	3.620085808375913530e+02	-2.105100729899914029e-06	-3.570937800658776951e+01
1.855966677707534109e+04	3.614713135269642521e+02	-2.110814443547969923e-06	-3.570759208642330407e+01
1.855968891993247234e+04	3.609266517171614055e+02	-2.116630306311516080e-06	-3.570580834653566171e+01
1.855971141993246056e+04	3.603656386071112365e+02	-2.122645663474003405e-06	-3.570399806090419759e+01
1.855973356278959182e+04	3.598061012447302005e+02	-2.128670514959499044e-06	-3.570221869005023763e+01
1.855975570564672307e+04	3.592392203024738251e+02	-2.134800381570266927e-06	-3.570044147309442906e+01
1.855977784850385433e+04	3.586650309199522439e+02	-2.141036060033076069e-06	-3.569866640138342717e+01
1.855980034850384254e+04	3.580741394928116392e+02	-2.147481441114623988e-06	-3.569686488804419611e+01
1.855982249136097380e+04	3.574853576300095597e+02	-2.153932563674271576e-06	-3.569509411529895004e+01
1.855984463421810506e+04	3.568894250293794244e+02	-2.160491448008018229e-06	-3.569332546197426126e+01
1.855986677707523631e+04	3.562864095557924315e+02	-2.167158601060410223e-06	-3.569155891959849924e+01
1.855988891993236757e+04	3.556763857860148619e+02	-2.173934468636489931e-06	-3.568979447974451347e+01
