# time(us)	tip(nm)	Fts(nN)	Xb(nm)
1.855557784850606549e+04	3.513873188806572898e+02	-2.234662882718768653e-06	-3.464749605943982402e+01
1.855560034850605371e+04	3.523960759442073254e+02	-2.223061676528447597e-06	-3.464509765374707939e+01
1.855562249136318496e+04	3.533835655006495813e+02	-2.211792411842683267e-06	-3.464274246917717193e+01
1.855564463422031622e+04	3.543657930988716771e+02	-2.200668059482067016e-06	-3.464039236731129279e+01
1.855566677707744748e+04	3.553427007406021971e+02	-2.189687066619818754e-06	-3.463804732122309105e+01
1.855568891993457873e+04	3.563142212903745190e+02	-2.178848007786644556e-06	-3.463570730418846466e+01
1.855571141993456695e+04	3.572958155162771732e+02	-2.167978163526766317e-06	-3.463333466900736113e+01
1.855573356279169820e+04	3.582562372324998137e+02	-2.157421386825467227e-06	-3.463100471075151177e+01
1.855575570564882946e+04	3.592110213667073708e+02	-2.147002896431673684e-06	-3.462867970214714575e+01
1.855577784850596072e+04	3.601600718468264972e+02	-2.136721656945838503e-06	-3.462635961725905531e+01
1.855580034850594529e+04	3.611184525220596697e+02	-2.126414181268005215e-06	-3.462400712861424523e+01
1.855582249136307655e+04	3.620556324558769461e+02	-2.116406760421590463e-06	-3.462169689249316207e+01
1.855584463422020781e+04	3.629867639416477800e+02	-2.106533808458026608e-06	-3.461939150301142121e+01
1.855586677707733907e+04	3.639117380036507257e+02	-2.096794472798951804e-06	-3.461709093498717493e+01
1.855588891993447032e+04	3.648304452703179095e+02	-2.087187914844833303e-06	-3.461479516342107843e+01
1.855591141993445854e+04	3.657574393089419686e+02	-2.077561558434638774e-06	-3.461246725084797760e+01
1.855593356279158979e+04	3.666631835606619916e+02	-2.068220145511855310e-06	-3.461018107428279933e+01
1.855595570564872105e+04	3.675623401903586682e+02	-2.059008950392689307e-06	-3.460789961985847896e+01
1.855597784850585231e+04	3.684548094858200216e+02	-2.049927079676438955e-06	-3.460562286328799075e+01
1.855600034850584052e+04	3.693547259596359140e+02	-2.040830238616240829e-06	-3.460331417212683647e+01
1.855602249136297178e+04	3.702334309409967545e+02	-2.032006226847838175e-06	-3.460104681389265124e+01
1.855604463422010303e+04	3.711051819151422251e+02	-2.023308589813863025e-06	-3.459878408129699068e+01
1.855606677707723429e+04	3.719699045743953434e+02	-2.014736243499326165e-06	-3.459652595073469428e+01
1.855608891993436555e+04	3.728275328026005013e+02	-2.006288043224042010e-06	-3.459427239876583116e+01
1.855611141993435376e+04	3.736916676905465238e+02	-1.997829502788191934e-06	-3.459198716517591521e+01
1.855613356279148502e+04	3.745348275776252081e+02	-1.989627855978375475e-06	-3.458974277363810046e+01
1.855615570564861628e+04	3.753707480887395604e+02	-1.981546511743687147e-06	-3.458750289097935848e+01
1.855617784850574753e+04	3.761994002334082552e+02	-1.973584064364736033e-06	-3.458526749440623860e+01
1.855620034850573575e+04	3.770339527313032022e+02	-1.965613466071743065e-06	-3.458300061494193045e+01
1.855622249136286700e+04	3.778479020928043610e+02	-1.957886201011543948e-06	-3.458077419423047871e+01
1.855624463421999826e+04	3.786545538335182641e+02	-1.950273221876856915e-06	-3.457855219179984374e+01
1.855626677707712952e+04	3.794539168515922256e+02	-1.942772890106021393e-06	-3.457633458547665839e+01
1.855628891993426078e+04	3.802460086511759982e+02	-1.935383521477546135e-06	-3.457412135323800584e+01
1.855631141993424899e+04	3.810434543795281570e+02	-1.927986856914120258e-06	-3.457187688165755191e+01
1.855633356279138025e+04	3.818209717034282562e+02	-1.920815932536623408e-06	-3.456967240178314427e+01
1.855635570564851150e+04	3.825913164335789247e+02	-1.913750686263387695e-06	-3.456747223046576067e+01
1.855637784850564276e+04	3.833545338671871718e+02	-1.906789324734875329e-06	-3.456527634627187950e+01
1.855640034850563097e+04	3.841228121676803084e+02	-1.899820241968096880e-06	-3.456304941406803977e+01
1.855642249136276223e+04	3.848718160994728237e+02	-1.893062858919927838e-06	-3.456086210868211595e+01
1.855644463421989349e+04	3.856138539964238703e+02	-1.886403954600714708e-06	-3.455867902663485580e+01
1.855646677707702474e+04	3.863489839126619358e+02	-1.879841769367193006e-06	-3.455650014705926054e+01
1.855648891993415600e+04	3.870772643039794616e+02	-1.873374575786952184e-06	-3.455432544922602744e+01
1.855651141993414421e+04	3.878103344381990496e+02	-1.866898638855503916e-06	-3.455211993787197144e+01
1.855653356279127547e+04	3.885249787665668464e+02	-1.860617887012014109e-06	-3.454995360849782315e+01
1.855655570564840673e+04	3.892329406130470488e+02	-1.854427204786072606e-06	-3.454779139916408326e+01
1.855657784850553799e+04	3.899342684648361796e+02	-1.848325084807818805e-06	-3.454563328968115599e+01
1.855660034850552620e+04	3.906401571889873594e+02	-1.842213785370384898e-06	-3.454344455089857036e+01
1.855662249136265746e+04	3.913282350081032064e+02	-1.836285948398280351e-06	-3.454129464639120073e+01
1.855664463421978871e+04	3.920097891389272604e+02	-1.830442609981591290e-06	-3.453914878163008240e+01
1.855666677707691997e+04	3.926848410623159111e+02	-1.824682603433323604e-06	-3.453700693694532475e+01
1.855668891993405123e+04	3.933534033671079442e+02	-1.819004860166052468e-06	-3.453486909279344275e+01
1.855671141993403944e+04	3.940261045317908497e+02	-1.813318809206122935e-06	-3.453270084512769245e+01
1.855673356279117070e+04	3.946815816598644915e+02	-1.807804086448547859e-06	-3.453057100765411747e+01
1.855675570564830196e+04	3.953305469741429761e+02	-1.802369028488129397e-06	-3.452844511252199311e+01
1.855677784850543321e+04	3.959729716535748594e+02	-1.797012985898952994e-06	-3.452632314068413422e+01
1.855680034850542143e+04	3.966190171009269534e+02	-1.791650933208749075e-06	-3.452417094272666986e+01
1.855682249136255268e+04	3.972481219916528516e+02	-1.786452649420497264e-06	-3.452205682333500647e+01
1.855684463421968394e+04	3.978705317161806079e+02	-1.781332054431030943e-06	-3.451994657051620408e+01
1.855686677707681520e+04	3.984861728167828687e+02	-1.776288909513063042e-06	-3.451784016570189095e+01
1.855688891993394645e+04	3.990949611897899558e+02	-1.771323069478593333e-06	-3.451573759044019596e+01
1.855691141993393467e+04	3.997064521573057050e+02	-1.766356262197451945e-06	-3.451360500649258967e+01
1.855693356279106592e+04	4.003011278795111139e+02	-1.761546190351522105e-06	-3.451151009647031742e+01
1.855695570564819718e+04	4.008886378043478658e+02	-1.756813494664739693e-06	-3.450941896104320961e+01
1.855697784850532844e+04	4.014688606997945044e+02	-1.752158344875034813e-06	-3.450733158221747487e+01
1.855700034850531665e+04	4.020508453648098453e+02	-1.747507780815346771e-06	-3.450521436555170851e+01
1.855702249136244791e+04	4.026159793758667433e+02	-1.743009724669995431e-06	-3.450313450626310185e+01
1.855704463421957917e+04	4.031734205340659400e+02	-1.738590054344857490e-06	-3.450105834997638254e+01
1.855706677707671042e+04	4.037230244544935545e+02	-1.734249127577934462e-06	-3.449898587914027104e+01
1.855708891993384168e+04	4.042646437425249246e+02	-1.729987326292667389e-06	-3.449691707631142634e+01
1.855711141993382989e+04	4.048066663110847685e+02	-1.725738245065292879e-06	-3.449481864506833517e+01
1.855713356279096115e+04	4.053317332613968915e+02	-1.721637183257960551e-06	-3.449275718481398911e+01
1.855715570564809241e+04	4.058483649628444141e+02	-1.717616451617472977e-06	-3.449069934059966869e+01
1.855717784850522366e+04	4.063564140984992719e+02	-1.713676436615636958e-06	-3.448864509540619139e+01
1.855720034850521188e+04	4.068637177011994481e+02	-1.709755929270256272e-06	-3.448656138636795276e+01
1.855722249136234313e+04	4.073540290029863513e+02	-1.705979730914924339e-06	-3.448451434593931708e+01
1.855724463421947439e+04	4.078353365983520007e+02	-1.702285255718693239e-06	-3.448247085382288901e+01
1.855726677707660201e+04	4.083075122754063955e+02	-1.698672759350601872e-06	-3.448043089340995948e+01
1.855728891993373327e+04	4.087704352071309017e+02	-1.695142447545720888e-06	-3.447839444819205568e+01
1.855731141993372148e+04	4.092312309659527045e+02	-1.691639533285351185e-06	-3.447632874088249366e+01
1.855733356279085274e+04	4.096751663348818511e+02	-1.688275310835537448e-06	-3.447429933296135829e+01
1.855735570564798400e+04	4.101095378381812679e+02	-1.684993538680392369e-06	-3.447227339104177446e+01
1.855737784850511525e+04	4.105342623298873264e+02	-1.681794174033822635e-06	-3.447025089900942163e+01
1.855740034850510347e+04	4.109558811382992189e+02	-1.678627502637715576e-06	-3.446819930344327787e+01
1.855742249136223472e+04	4.113609476845980453e+02	-1.675593867352769088e-06	-3.446618371822459892e+01
1.855744463421936598e+04	4.117561833564319045e+02	-1.672642084474483151e-06	-3.446417153486988383e+01
1.855746677707649724e+04	4.121415500968558945e+02	-1.669771827351443776e-06	-3.446216273764659377e+01
1.855748891993362849e+04	4.125170212872274647e+02	-1.666982699893549573e-06	-3.446015731091548417e+01
1.855751141993361671e+04	4.128883964521595544e+02	-1.664231212176281555e-06	-3.445812297505661803e+01
1.855753356279074796e+04	4.132438815415456475e+02	-1.661604178020886368e-06	-3.445612429649811759e+01
1.855755570564787922e+04	4.135894576704648102e+02	-1.659056685306897639e-06	-3.445412894181929175e+01
1.855757784850501048e+04	4.139251411513430980e+02	-1.656588089922951705e-06	-3.445213689574813287e+01
1.855760034850499869e+04	4.142561320690127786e+02	-1.654159779603370873e-06	-3.445011609335185909e+01
1.855762249136212995e+04	4.145719575577120395e+02	-1.651848094536893295e-06	-3.444813067179146060e+01
1.855764463421926121e+04	4.148779930589917626e+02	-1.649613084221314545e-06	-3.444614851331713368e+01
1.855766677707639246e+04	4.151742875213316779e+02	-1.647453940535471674e-06	-3.444416960301315100e+01
1.855768891993352372e+04	4.154608957220177672e+02	-1.645369831745298670e-06	-3.444219392605073438e+01
1.855771141993351193e+04	4.157422661209328112e+02	-1.643328095219079523e-06	-3.444018968013731552e+01
1.855773356279064319e+04	4.160095304515111820e+02	-1.641392680417959292e-06	-3.443822047727375235e+01
1.855775570564777445e+04	4.162672982283304464e+02	-1.639529726620664851e-06	-3.443625446354714370e+01
1.855777784850490571e+04	4.165156367232956427e+02	-1.637738385243232304e-06	-3.443429162447184666e+01
1.855780034850489392e+04	4.167583916069559677e+02	-1.635990647767621429e-06	-3.443230036374112757e+01
1.855782249136202518e+04	4.169879239706171461e+02	-1.634341177448813897e-06	-3.443034388147041369e+01
1.855784463421915643e+04	4.172082271057038270e+02	-1.632760885343786266e-06	-3.442839053066595767e+01
1.855786677707628769e+04	4.174193627259122650e+02	-1.631249030775549852e-06	-3.442644029717528298e+01
1.855788891993341895e+04	4.176213885274158883e+02	-1.629804917619664520e-06	-3.442449316692731287e+01
1.855791141993340716e+04	4.178173956986715325e+02	-1.628406237022879647e-06	-3.442251779567033054e+01
1.855793356279053842e+04	4.180012092983603793e+02	-1.627096795022218494e-06	-3.442057687950619282e+01
1.855795570564766967e+04	4.181760536845025626e+02	-1.625853324216317025e-06	-3.441863902463200731e+01
1.855797784850480093e+04	4.183419618188609661e+02	-1.624675363517628585e-06	-3.441670421729793361e+01
1.855800034850478914e+04	4.185014181193475338e+02	-1.623545103708158534e-06	-3.441474131098252798e+01
1.855802249136192040e+04	4.186493774772601455e+02	-1.622498102380200294e-06	-3.441281260639611617e+01
1.855804463421905166e+04	4.187884508260479492e+02	-1.621515649879486773e-06	-3.441088690835220376e+01
1.855806677707618292e+04	4.189186374045034995e+02	-1.620597576365970843e-06	-3.440896420341310602e+01
1.855808891993331417e+04	4.190399275305388187e+02	-1.619743787285084658e-06	-3.440704447821762102e+01
1.855811141993330239e+04	4.191540419515536087e+02	-1.618942055340376861e-06	-3.440509682825285154e+01
1.855813356279043364e+04	4.192573302781816551e+02	-1.618217887089393957e-06	-3.440318307028875466e+01
1.855815570564756490e+04	4.193516399858101522e+02	-1.617558163939446300e-06	-3.440127225222611429e+01
1.855817784850469616e+04	4.194369272508395738e+02	-1.616963079496098032e-06	-3.439936436100505546e+01
1.855820034850468437e+04	4.195142953623961830e+02	-1.616424873612566829e-06	-3.439742868200470127e+01
1.855822249136181563e+04	4.195812292268341253e+02	-1.615960954429330182e-06	-3.439552665226567285e+01
1.855824463421894689e+04	4.196389659228278788e+02	-1.615562627717862219e-06	-3.439362751042258992e+01
1.855826677707607814e+04	4.196874358851129614e+02	-1.615230315072778946e-06	-3.439173124370870482e+01
1.855828891993320940e+04	4.197265652100656439e+02	-1.614964480523684157e-06	-3.438983783942901340e+01
1.855831141993319761e+04	4.197566782431800902e+02	-1.614762968174559840e-06	-3.438791681542961243e+01
1.855833356279032887e+04	4.197767383550250884e+02	-1.614632710904877075e-06	-3.438602914387767839e+01
1.855835570564746013e+04	4.197872188848047585e+02	-1.614570518376649463e-06	-3.438414429689985496e+01
1.855837784850459138e+04	4.197880389244009507e+02	-1.614576953938270791e-06	-3.438226226208446690e+01
1.855840034850457960e+04	4.197788944817106653e+02	-1.614654376789656485e-06	-3.438035273972299422e+01
1.855842249136171085e+04	4.197599971485968240e+02	-1.614800903848215591e-06	-3.437847633713448658e+01
1.855844463421884211e+04	4.197312062337273915e+02	-1.615017761791296640e-06	-3.437660270969119836e+01
1.855846677707597337e+04	4.196924518578111361e+02	-1.615305490732498874e-06	-3.437473184525720882e+01
1.855848891993310463e+04	4.196436696400266442e+02	-1.615664606258060005e-06	-3.437286373176404197e+01
1.855851141993309284e+04	4.195837692930660410e+02	-1.616103135331304989e-06	-3.437096829290258881e+01
1.855853356279022410e+04	4.195146013969969090e+02	-1.616607608148808416e-06	-3.436910568924000842e+01
1.855855570564735535e+04	4.194352547135095506e+02	-1.617184805834357092e-06	-3.436724580052258915e+01
1.855857784850448661e+04	4.193456964534809686e+02	-1.617835079942127936e-06	-3.436538861494858565e+01
1.855860034850447482e+04	4.192442101408031476e+02	-1.618571001845331892e-06	-3.436350423157587386e+01
1.855862249136160608e+04	4.191340049275334536e+02	-1.619369449844646790e-06	-3.436165246027044162e+01
1.855864463421873734e+04	4.190135510090335629e+02	-1.620241687657584804e-06	-3.435980335690662457e+01
1.855866677707586859e+04	4.188828581230474128e+02	-1.621187825121881501e-06	-3.435795690994234519e+01
1.855868891993299985e+04	4.187419474664212657e+02	-1.622207905119031094e-06	-3.435611310789924744e+01
1.855871141993298806e+04	4.185883315319493363e+02	-1.623320152905586246e-06	-3.435424226461332609e+01
1.855873356279011568e+04	4.184269319853485172e+02	-1.624489163759440467e-06	-3.435240376042995081e+01
1.855875570564724694e+04	4.182554483338153659e+02	-1.625731834242866391e-06	-3.435056786692863540e+01
1.855877784850437820e+04	4.180739474749011038e+02	-1.627047935920774552e-06	-3.434873457288240672e+01
1.855880034850436641e+04	4.178793382325608263e+02	-1.628460181023344896e-06	-3.434687436076239209e+01
1.855882249136149767e+04	4.176778876199934984e+02	-1.629923377972466927e-06	-3.434504627366822405e+01
1.855884463421862893e+04	4.174666838349853037e+02	-1.631458943462308680e-06	-3.434322075253864881e+01
1.855886677707576018e+04	4.172458328929466234e+02	-1.633066414321331067e-06	-3.434139778639165996e+01
1.855888891993289144e+04	4.170154486668093909e+02	-1.634745280512585510e-06	-3.433957736430533458e+01
1.855891141993287965e+04	4.167717078161779227e+02	-1.636523789612920584e-06	-3.433773017532791272e+01
1.855893356279001091e+04	4.165224765847315780e+02	-1.638344887639469149e-06	-3.433591484943107730e+01
1.855895570564714217e+04	4.162640932063170567e+02	-1.640235622271777115e-06	-3.433410203501284030e+01
1.855897784850427342e+04	4.159966929162266069e+02	-1.642195361001589386e-06	-3.433229172138862850e+01
1.855900034850426164e+04	4.157158853196693826e+02	-1.644256727428268242e-06	-3.433045475983675487e+01
1.855902249136139289e+04	4.154307258305396999e+02	-1.646353624706246052e-06	-3.432864945588634953e+01
1.855904463421852415e+04	4.151369674824271101e+02	-1.648517580325392369e-06	-3.432684662085463145e+01
1.855906677707565541e+04	4.148347481974241191e+02	-1.650747964346871064e-06	-3.432504624428840856e+01
1.855908891993278667e+04	4.145242035529005875e+02	-1.653044168394363733e-06	-3.432324831579128244e+01
1.855911141993277488e+04	4.142002582551280057e+02	-1.655444233356036861e-06	-3.432142388541406319e+01
1.855913356278990614e+04	4.138733254077780543e+02	-1.657871419148569600e-06	-3.431963086115914052e+01
1.855915570564703739e+04	4.135384504086975994e+02	-1.660362803367424764e-06	-3.431784025395616311e+01
1.855917784850416865e+04	4.131957482474680319e+02	-1.662917945185959493e-06	-3.431605205363298694e+01
1.855920034850415686e+04	4.128396116557682376e+02	-1.665579215693824672e-06	-3.431423746637405259e+01
1.855922249136128812e+04	4.124814468183705003e+02	-1.668261812482842178e-06	-3.431245408792634066e+01
1.855924463421841938e+04	4.121157524756625889e+02	-1.671007227473529989e-06	-3.431067308600933075e+01
1.855926677707555064e+04	4.117426086339229414e+02	-1.673815297967909077e-06	-3.430889445066961940e+01
1.855928891993268189e+04	4.113620850881853244e+02	-1.676685943264316328e-06	-3.430711817200737812e+01
1.855931141993267011e+04	4.109679258030413962e+02	-1.679666991515698429e-06	-3.430531564754973317e+01
1.855933356278980136e+04	4.105726927432532989e+02	-1.682663901430256338e-06	-3.430354409037018115e+01
1.855935570564693262e+04	4.101702256085881686e+02	-1.685723671228874879e-06	-3.430177486033057477e+01
1.855937784850406388e+04	4.097605508060660213e+02	-1.688846576874903301e-06	-3.430000794774326778e+01
1.855940034850405209e+04	4.093369014377831832e+02	-1.692084902014137340e-06	-3.429821490046412436e+01
1.855942249136118335e+04	4.089127318511033877e+02	-1.695336307118875975e-06	-3.429645263091619256e+01
1.855944463421831460e+04	4.084813703584451900e+02	-1.698652228487068577e-06	-3.429469264991509903e+01
1.855946677707544586e+04	4.080428023337798891e+02	-1.702033299655963865e-06	-3.429293494798012176e+01
1.855948891993257712e+04	4.075970042162246045e+02	-1.705480236640687362e-06	-3.429117951568144207e+01
1.855951141993256533e+04	4.071365771036302590e+02	-1.709051055503444709e-06	-3.428939808514159893e+01
1.855953356278969659e+04	4.066760979893817307e+02	-1.712633276540471106e-06	-3.428764720025641566e+01
1.855955570564682785e+04	4.062082714291200887e+02	-1.716283975344070481e-06	-3.428589855687008026e+01
1.855957784850395910e+04	4.057330461861187700e+02	-1.720004148680197164e-06	-3.428415214575353787e+01
1.855960034850394732e+04	4.052425199974479142e+02	-1.723856571547544790e-06	-3.428237984382894155e+01
1.855962249136107857e+04	4.047522052200974372e+02	-1.727720057347706188e-06	-3.428063790539592048e+01
1.855964463421820983e+04	4.042543146146661570e+02	-1.731656320716875986e-06	-3.427889817169369735e+01
1.855966677707534109e+04	4.037487856714955115e+02	-1.735666529094442253e-06	-3.427716063368927735e+01
1.855968891993247234e+04	4.032355558918995371e+02	-1.739751872283275094e-06	-3.427542528239769126e+01
1.855971141993246056e+04	4.027060968801123408e+02	-1.743981310208086684e-06	-3.427366417226716067e+01
1.855973356278959182e+04	4.021771569637523953e+02	-1.748221800745909004e-06	-3.427193320254668407e+01
1.855975570564672307e+04	4.016403390425554676e+02	-1.752541065564394723e-06	-3.427020439272759944e+01
1.855977784850385433e+04	4.010955916989152001e+02	-1.756940300596436064e-06	-3.426847773401517117e+01
1.855980034850384254e+04	4.005338883344487613e+02	-1.761493618843471307e-06	-3.426672542038924263e+01
1.855982249136097380e+04	3.999730203592537237e+02	-1.766057637351434689e-06	-3.426500307203522766e+01
1.855984463421810506e+04	3.994041034068740146e+02	-1.770705091640038197e-06	-3.426328284854347572e+01
1.855986677707523631e+04	3.988271122700929823e+02	-1.775437060931033996e-06	-3.426156474130504392e+01
1.855988891993236757e+04	3.982420300072673172e+02	-1.780254579797592491e-06	-3.425984874175657069e+01
