# time(us)	tip(nm)	Fts(nN)	Xb(nm)
1.855557784850606549e+04	4.028693836383043276e+02	-1.785732875314751345e-06	-2.900172044763327861e+01
1.855560034850605371e+04	4.043758767046988396e+02	-1.773361335753002408e-06	-2.899953877778889222e+01
1.855562249136318496e+04	4.058510753961277260e+02	-1.761370985750328547e-06	-2.899739701174719997e+01
1.855564463422031622e+04	4.073188666100591036e+02	-1.749561161200286638e-06	-2.899526044690140125e+01
1.855566677707744748e+04	4.087791764329970192e+02	-1.737929041329764657e-06	-2.899312905295640164e+01
1.855568891993457873e+04	4.102319416380855159e+02	-1.726471781617865777e-06	-2.899100279988643436e+01
1.855571141993456695e+04	4.117003565855867464e+02	-1.715005887813890413e-06	-2.898884748768493935e+01
1.855573356279169820e+04	4.131377631794917420e+02	-1.703892429036564152e-06	-2.898673150906754614e+01
1.855575570564882946e+04	4.145675008988492323e+02	-1.692945120757327190e-06	-2.898462058235702088e+01
1.855577784850596072e+04	4.159895505317775815e+02	-1.682161040701418544e-06	-2.898251467857202002e+01
1.855580034850594529e+04	4.174266525561322396e+02	-1.671367201482722728e-06	-2.898037992411196129e+01
1.855582249136307655e+04	4.188331864435107263e+02	-1.660903285143991797e-06	-2.897828406009509905e+01
1.855584463422020781e+04	4.202320369807368365e+02	-1.650593735213725003e-06	-2.897619313309932565e+01
1.855586677707733907e+04	4.216232248823697546e+02	-1.640435614963865699e-06	-2.897410711513129300e+01
1.855588891993447032e+04	4.230067793137279182e+02	-1.630425998099952174e-06	-2.897202597843540062e+01
1.855591141993445854e+04	4.244048679467928764e+02	-1.620404055084445979e-06	-2.896991624667986542e+01
1.855593356279158979e+04	4.257731512611592279e+02	-1.610685017892141960e-06	-2.896784486782024715e+01
1.855595570564872105e+04	4.271339318195188071e+02	-1.601105786192235856e-06	-2.896577828792608500e+01
1.855597784850585231e+04	4.284872639584860963e+02	-1.591663540974380993e-06	-2.896371648016504707e+01
1.855600034850584052e+04	4.298548542712966309e+02	-1.582206461784337797e-06	-2.896162627824586977e+01
1.855602249136297178e+04	4.311933487585261560e+02	-1.573032011420938516e-06	-2.895957401104037388e+01
1.855604463422010303e+04	4.325245769099129234e+02	-1.563986334423798701e-06	-2.895752643637289481e+01
1.855606677707723429e+04	4.338486013722306325e+02	-1.555066824847959477e-06	-2.895548352828662075e+01
1.855608891993436555e+04	4.351654840346513993e+02	-1.546270944876250685e-06	-2.895344526103572491e+01
1.855611141993435376e+04	4.364963530206882183e+02	-1.537457294984610985e-06	-2.895137884592535471e+01
1.855613356279148502e+04	4.377990163169136508e+02	-1.528903255843294502e-06	-2.894934985776341918e+01
1.855615570564861628e+04	4.390947087555837811e+02	-1.520465655420136094e-06	-2.894732543403484470e+01
1.855617784850574753e+04	4.403834783058244398e+02	-1.512142277470926007e-06	-2.894530554981445647e+01
1.855620034850573575e+04	4.416859864448964572e+02	-1.503799462168014980e-06	-2.894325771127770608e+01
1.855622249136286700e+04	4.429609193769394437e+02	-1.495699998677933538e-06	-2.894124690431079117e+01
1.855624463421999826e+04	4.442290348014561232e+02	-1.487708622536898507e-06	-2.893924056286324387e+01
1.855626677707712952e+04	4.454903520846407332e+02	-1.479823487475199640e-06	-2.893723866279005108e+01
1.855628891993426078e+04	4.467448818141902507e+02	-1.472042841853425849e-06	-2.893524118013448643e+01
1.855631141993424899e+04	4.480126946014303257e+02	-1.464242026482207047e-06	-2.893321598040281728e+01
1.855633356279138025e+04	4.492535340219064892e+02	-1.456667101669145175e-06	-2.893122733174647720e+01
1.855635570564851150e+04	4.504875606712917602e+02	-1.449191948651154508e-06	-2.892924302936842906e+01
1.855637784850564276e+04	4.517147465108709525e+02	-1.441815184841578614e-06	-2.892726305004540066e+01
1.855640034850563097e+04	4.529546793973359513e+02	-1.434418888265136657e-06	-2.892525554004647503e+01
1.855642249136276223e+04	4.541679480476479398e+02	-1.427236631693539217e-06	-2.892328420666979483e+01
1.855644463421989349e+04	4.553742323129380907e+02	-1.420149098742975987e-06	-2.892131712736817661e+01
1.855646677707702474e+04	4.565734659103729882e+02	-1.413155227363471771e-06	-2.891935427961728067e+01
1.855648891993415600e+04	4.577655739793697194e+02	-1.406254023682039576e-06	-2.891739564106169169e+01
1.855651141993414421e+04	4.589695254027085412e+02	-1.399335473272725893e-06	-2.891540970029016577e+01
1.855653356279127547e+04	4.601470080866780563e+02	-1.392618327058339717e-06	-2.891345948072246586e+01
1.855655570564840673e+04	4.613170939809650690e+02	-1.385991206901468809e-06	-2.891151340392668345e+01
1.855657784850553799e+04	4.624796806672750904e+02	-1.379453334840928809e-06	-2.890957144820647784e+01
1.855660034850552620e+04	4.636532267692438154e+02	-1.372900670574375067e-06	-2.890760236975607356e+01
1.855662249136265746e+04	4.648003644200023246e+02	-1.366540518162174178e-06	-2.890566865733613966e+01
1.855664463421978871e+04	4.659396692864610259e+02	-1.360267473579329861e-06	-2.890373900151091391e+01
1.855666677707691997e+04	4.670710259954944945e+02	-1.354080874442950963e-06	-2.890181338121347565e+01
1.855668891993405123e+04	4.681943185591119914e+02	-1.347980071642167094e-06	-2.889989177552929078e+01
1.855671141993403944e+04	4.693273494741249010e+02	-1.341868091213824145e-06	-2.889794326708557293e+01
1.855673356279117070e+04	4.704340339624948797e+02	-1.335938315874071681e-06	-2.889602969240160846e+01
1.855675570564830196e+04	4.715323114989639066e+02	-1.330092401935239407e-06	-2.889412007015580031e+01
1.855677784850543321e+04	4.726220742190911892e+02	-1.324329698024637982e-06	-2.889221438002881115e+01
1.855680034850542143e+04	4.737205854179654807e+02	-1.318558597443358236e-06	-2.889028195995012283e+01
1.855682249136255268e+04	4.747928725071514577e+02	-1.312961619946670673e-06	-2.888838413628740653e+01
1.855684463421968394e+04	4.758563503402823471e+02	-1.307445796226214622e-06	-2.888649018432482052e+01
1.855686677707681520e+04	4.769109342806207223e+02	-1.302010402753407669e-06	-2.888460008431282589e+01
1.855688891993394645e+04	4.779565473154112851e+02	-1.296654690864357497e-06	-2.888271381663998483e+01
1.855691141993393467e+04	4.790097651087345980e+02	-1.291293417457295484e-06	-2.888080103079537153e+01
1.855693356279106592e+04	4.800370912139592861e+02	-1.286095967020143016e-06	-2.887892243053988039e+01
1.855695570564819718e+04	4.810552653303631701e+02	-1.280975773117855945e-06	-2.887704760429480189e+01
1.855697784850532844e+04	4.820642455073178780e+02	-1.275931974375375440e-06	-2.887517653298895226e+01
1.855700034850531665e+04	4.830800483743728932e+02	-1.270884161266005630e-06	-2.887327910988202362e+01
1.855702249136244791e+04	4.840704025558676449e+02	-1.265991652732815246e-06	-2.887141555156517114e+01
1.855704463421957917e+04	4.850514922285383932e+02	-1.261172776016409802e-06	-2.886955569145466782e+01
1.855706677707671042e+04	4.860233120839484400e+02	-1.256426565507519975e-06	-2.886769951099758558e+01
1.855708891993384168e+04	4.869858652986625884e+02	-1.251752034887956168e-06	-2.886584699176678726e+01
1.855711141993382989e+04	4.879544630728209995e+02	-1.247074497963393903e-06	-2.886396832462599349e+01
1.855713356279096115e+04	4.888983751816842300e+02	-1.242541415743615894e-06	-2.886212313137846408e+01
1.855715570564809241e+04	4.898330762395734155e+02	-1.238076945253062702e-06	-2.886028154452771233e+01
1.855717784850522366e+04	4.907585976546791358e+02	-1.233680050672228630e-06	-2.885844354613920970e+01
1.855720034850521188e+04	4.916896815380002295e+02	-1.229280388840570759e-06	-2.885657956001630353e+01
1.855722249136234313e+04	4.925968109658830372e+02	-1.225016581373593231e-06	-2.885474874238759924e+01
1.855724463421947439e+04	4.934948826584110861e+02	-1.220817229015397526e-06	-2.885292145984836765e+01
1.855726677707660201e+04	4.943839427871370731e+02	-1.216681313240782891e-06	-2.885109769493762144e+01
1.855728891993373327e+04	4.952640386597314546e+02	-1.212607831211658893e-06	-2.884927743030948832e+01
1.855731141993372148e+04	4.961491961101299921e+02	-1.208531588376737146e-06	-2.884743137425110504e+01
1.855733356279085274e+04	4.970113618722182878e+02	-1.204581018574986973e-06	-2.884561811436773127e+01
1.855735570564798400e+04	4.978647020776527938e+02	-1.200689998040221710e-06	-2.884380830313537913e+01
1.855737784850511525e+04	4.987092578084459547e+02	-1.196857631150550439e-06	-2.884200192365936388e+01
1.855740034850510347e+04	4.995584752543020386e+02	-1.193022647914679690e-06	-2.884016990697435645e+01
1.855742249136223472e+04	5.003854272836290420e+02	-1.189305964578500233e-06	-2.883837039543995573e+01
1.855744463421936598e+04	5.012036895982489000e+02	-1.185645470208616073e-06	-2.883657426536571933e+01
1.855746677707649724e+04	5.020132808940774680e+02	-1.182040436601575090e-06	-2.883478150029149134e+01
1.855748891993362849e+04	5.028142121872791677e+02	-1.178490184120779267e-06	-2.883299208386280910e+01
1.855751141993361671e+04	5.036191937849075089e+02	-1.174938135389364445e-06	-2.883117721924149279e+01
1.855753356279074796e+04	5.044026642810018188e+02	-1.171496469267608126e-06	-2.882939450481467247e+01
1.855755570564787922e+04	5.051774551460590601e+02	-1.168107845509257450e-06	-2.882761509033673875e+01
1.855757784850501048e+04	5.059435407661403019e+02	-1.164771794018577355e-06	-2.882583895986818234e+01
1.855760034850499869e+04	5.067130288764053034e+02	-1.161435357332823645e-06	-2.882403752971184474e+01
1.855762249136212995e+04	5.074614447965918202e+02	-1.158204085759693981e-06	-2.882226797217686354e+01
1.855764463421926121e+04	5.082010171229769639e+02	-1.155024289345965389e-06	-2.882050165118381457e+01
1.855766677707639246e+04	5.089316797118538602e+02	-1.151895707403250498e-06	-2.881873855119344441e+01
1.855768891993352372e+04	5.096533566170373319e+02	-1.148818127760644184e-06	-2.881697865676402159e+01
1.855771141993351193e+04	5.103773812440617803e+02	-1.145742981841713847e-06	-2.881519364466990396e+01
1.855773356279064319e+04	5.110806729644025381e+02	-1.142767769475680536e-06	-2.881344016650751172e+01
1.855775570564777445e+04	5.117746947223689631e+02	-1.139843187687967930e-06	-2.881168984791364096e+01
1.855777784850490571e+04	5.124593358855125871e+02	-1.136969191779756111e-06	-2.880994267382957830e+01
1.855780034850489392e+04	5.131452897704290308e+02	-1.134100645627836896e-06	-2.880817052510261078e+01
1.855782249136202518e+04	5.138106546812659872e+02	-1.131328632243660218e-06	-2.880642964534989048e+01
1.855784463421915643e+04	5.144662668033586215e+02	-1.128607254239250952e-06	-2.880469186525010628e+01
1.855786677707628769e+04	5.151119930823750792e+02	-1.125936575163336221e-06	-2.880295717011463452e+01
1.855788891993341895e+04	5.157476973618104239e+02	-1.123316674717198501e-06	-2.880122554534509050e+01
1.855791141993340716e+04	5.163832468665681290e+02	-1.120706625682413915e-06	-2.879946912125073410e+01
1.855793356279053842e+04	5.169983244710995223e+02	-1.118189386643014876e-06	-2.879774364271267473e+01
1.855795570564766967e+04	5.176029617476996236e+02	-1.115723218978614130e-06	-2.879602119104870894e+01
1.855797784850480093e+04	5.181970212289543269e+02	-1.113308222200234317e-06	-2.879430175201523667e+01
1.855800034850478914e+04	5.187896882329506525e+02	-1.110906785723258111e-06	-2.879255765142372780e+01
1.855802249136192040e+04	5.193620147860013958e+02	-1.108595230224608913e-06	-2.879084424328667069e+01
1.855804463421905166e+04	5.199233683568273818e+02	-1.106335093518612684e-06	-2.878913380534091715e+01
1.855806677707618292e+04	5.204736278726376213e+02	-1.104126427730689568e-06	-2.878742632368618359e+01
1.855808891993331417e+04	5.210126788293989648e+02	-1.101969264349872561e-06	-2.878572178450594876e+01
1.855811141993330239e+04	5.215488327288834398e+02	-1.099830071225015747e-06	-2.878399275266167479e+01
1.855813356279043364e+04	5.220649686804561043e+02	-1.097776740653496302e-06	-2.878229410421874945e+01
1.855815570564756490e+04	5.225695987717667776e+02	-1.095774854975917695e-06	-2.878059835707845693e+01
1.855817784850469616e+04	5.230626426501946753e+02	-1.093824337381990570e-06	-2.877890549775398199e+01
1.855820034850468437e+04	5.235516983614577384e+02	-1.091894865900462711e-06	-2.877718827849889394e+01
1.855822249136181563e+04	5.240211795191753481e+02	-1.090047551152033051e-06	-2.877550120070462469e+01
1.855824463421894689e+04	5.244788937451560287e+02	-1.088251180142171475e-06	-2.877381697053307263e+01
1.855826677707607814e+04	5.249248023718711238e+02	-1.086505546848228001e-06	-2.877213557481682571e+01
1.855828891993320940e+04	5.253588774203351477e+02	-1.084810413095171722e-06	-2.877045700046649301e+01
1.855831141993319761e+04	5.257878143821437789e+02	-1.083139388732636912e-06	-2.876875422892818079e+01
1.855833356279032887e+04	5.261979891276489525e+02	-1.081545218441642831e-06	-2.876708130333217994e+01
1.855835570564746013e+04	5.265963088601280333e+02	-1.080000645556169609e-06	-2.876541116008904098e+01
1.855837784850459138e+04	5.269827861726213314e+02	-1.078505315690506168e-06	-2.876374378641657614e+01
1.855840034850457960e+04	5.273633887436432133e+02	-1.077035918837379396e-06	-2.876205234347115791e+01
1.855842249136171085e+04	5.277260642547018961e+02	-1.075638697728446853e-06	-2.876039051505187771e+01
1.855844463421884211e+04	5.280769867657027135e+02	-1.074289518042611387e-06	-2.875873141810280487e+01
1.855846677707597337e+04	5.284162004639051702e+02	-1.072987947462691899e-06	-2.875707504013978166e+01
1.855848891993310463e+04	5.287437553326179795e+02	-1.071733542393072375e-06	-2.875542136875145971e+01
1.855851141993309284e+04	5.290647074046543139e+02	-1.070506753009006497e-06	-2.875374378494545269e+01
1.855853356279022410e+04	5.293689272014599965e+02	-1.069346063728510157e-06	-2.875209553291838205e+01
1.855855570564735535e+04	5.296616641214711763e+02	-1.068231171082538798e-06	-2.875044995046724594e+01
1.855857784850448661e+04	5.299429813934524418e+02	-1.067161623794320333e-06	-2.874880702546771971e+01
1.855860034850447482e+04	5.302172044280662249e+02	-1.066120817334645637e-06	-2.874714031135486891e+01
1.855862249136160608e+04	5.304756920893977394e+02	-1.065141355458919446e-06	-2.874550270754227199e+01
1.855864463421873734e+04	5.307229505809475540e+02	-1.064205940032435076e-06	-2.874386772503554965e+01
1.855866677707586859e+04	5.309590395154783664e+02	-1.063314173396513811e-06	-2.874223535198909474e+01
1.855868891993299985e+04	5.311840151044383447e+02	-1.062465680103259467e-06	-2.874060557662536652e+01
1.855871141993298806e+04	5.314012891055248247e+02	-1.061647466918673035e-06	-2.873895216337110270e+01
1.855873356279011568e+04	5.316040112863287277e+02	-1.060885182912513582e-06	-2.873732758973686430e+01
1.855875570564724694e+04	5.317957602845627889e+02	-1.060165204835074976e-06	-2.873570557867061837e+01
1.855877784850437820e+04	5.319765703032929878e+02	-1.059487275294167642e-06	-2.873408611866361895e+01
1.855880034850436641e+04	5.321491193913369671e+02	-1.058841253875498511e-06	-2.873244313966009500e+01
1.855882249136149767e+04	5.323079494408298160e+02	-1.058247461213399354e-06	-2.873082878819302266e+01
1.855884463421862893e+04	5.324558985974114194e+02	-1.057695158815097965e-06	-2.872921695346957449e+01
1.855886677707576018e+04	5.325929699700062656e+02	-1.057184237720983127e-06	-2.872760762424222847e+01
1.855888891993289144e+04	5.327191583093432428e+02	-1.056714627787069149e-06	-2.872600078932732970e+01
1.855891141993287965e+04	5.328362201348680856e+02	-1.056279727310292728e-06	-2.872437058125177600e+01
1.855893356279001091e+04	5.329404169485479770e+02	-1.055893349889487972e-06	-2.872276874144709424e+01
1.855895570564714217e+04	5.330336647384863227e+02	-1.055548304246562596e-06	-2.872116936260606224e+01
1.855897784850427342e+04	5.331159257366022075e+02	-1.055244671183904850e-06	-2.871957243379722513e+01
1.855900034850426164e+04	5.331882130942339018e+02	-1.054978679424187867e-06	-2.871795224650418632e+01
1.855902249136139289e+04	5.332481794856482793e+02	-1.054758922861406577e-06	-2.871636022429049362e+01
1.855904463421852415e+04	5.332970035335656576e+02	-1.054581022016051922e-06	-2.871477061951028986e+01
1.855906677707565541e+04	5.333346220249652561e+02	-1.054445181990868788e-06	-2.871318342147739955e+01
1.855908891993278667e+04	5.333609672478598895e+02	-1.054351632154653716e-06	-2.871159861956566672e+01
1.855911141993277488e+04	5.333761164553922072e+02	-1.054300150273905599e-06	-2.870999069985479224e+01
1.855913356278990614e+04	5.333795137178071855e+02	-1.054292642538685639e-06	-2.870841069676646740e+01
1.855915570564703739e+04	5.333714155111176751e+02	-1.054328230391612266e-06	-2.870683305810896258e+01
1.855917784850416865e+04	5.333517455317755775e+02	-1.054407206597062201e-06	-2.870525777349315177e+01
1.855920034850415686e+04	5.333198269199899642e+02	-1.054532208626868090e-06	-2.870365948172246107e+01
1.855922249136128812e+04	5.332765975923792894e+02	-1.054699574382813130e-06	-2.870208891180669397e+01
1.855924463421841938e+04	5.332215732543924105e+02	-1.054911235962232017e-06	-2.870052066494763210e+01
1.855926677707555064e+04	5.331546857188735657e+02	-1.055167489657944265e-06	-2.869895473098689820e+01
1.855928891993268189e+04	5.330758714143038333e+02	-1.055468623318578510e-06	-2.869739109982262804e+01
1.855931141993267011e+04	5.329835093495346428e+02	-1.055820869652950716e-06	-2.869580459726444843e+01
1.855933356278980136e+04	5.328804795297249939e+02	-1.056213310240007787e-06	-2.869424557834868850e+01
1.855935570564693262e+04	5.327653686794886880e+02	-1.056651413319674277e-06	-2.869268883209921484e+01
1.855937784850406388e+04	5.326381409176111674e+02	-1.057135399554773746e-06	-2.869113434863728074e+01
1.855940034850405209e+04	5.324964216251389644e+02	-1.057674393816784151e-06	-2.868955710057129949e+01
1.855942249136118335e+04	5.323446920164194580e+02	-1.058251458015845007e-06	-2.868800714936739382e+01
1.855944463421831460e+04	5.321807929855160637e+02	-1.058874917821926997e-06	-2.868645943148516153e+01
1.855946677707544586e+04	5.320047272266667733e+02	-1.059544886045591508e-06	-2.868491393726324645e+01
1.855948891993257712e+04	5.318165079847231027e+02	-1.060261444843269940e-06	-2.868337065709355826e+01
1.855951141993256533e+04	5.316128285519754400e+02	-1.061037337016399304e-06	-2.868180474337420449e+01
1.855953356278969659e+04	5.314001901707978277e+02	-1.061847950119474868e-06	-2.868026589802147086e+01
1.855955570564682785e+04	5.311755030550891661e+02	-1.062705210592976274e-06	-2.867872923806068286e+01
1.855957784850395910e+04	5.309388231150679758e+02	-1.063609074266765148e-06	-2.867719475409418806e+01
1.855960034850394732e+04	5.306861092425612014e+02	-1.064575176471169586e-06	-2.867563773968388219e+01
1.855962249136107857e+04	5.304254608647750047e+02	-1.065572742512958096e-06	-2.867410761443883160e+01
1.855964463421820983e+04	5.301530475576869321e+02	-1.066616601679351403e-06	-2.867257963715427849e+01
1.855966677707534109e+04	5.298689626902466898e+02	-1.067706598331714795e-06	-2.867105379863755843e+01
1.855968891993247234e+04	5.295733073336123198e+02	-1.068842554342675471e-06	-2.866953008974628858e+01
1.855971141993246056e+04	5.292611426038000673e+02	-1.070043705687340937e-06	-2.866798397696729950e+01
1.855973356278959182e+04	5.289424939753693025e+02	-1.071271703147939777e-06	-2.866646453408158735e+01
1.855975570564672307e+04	5.286126175497068971e+02	-1.072545016303392516e-06	-2.866494719354779264e+01
1.855977784850385433e+04	5.282716362381136150e+02	-1.073863407720191596e-06	-2.866343194642209724e+01
1.855980034850384254e+04	5.279139097791126005e+02	-1.075248987739622845e-06	-2.866189439499382274e+01
1.855982249136097380e+04	5.275509238616741641e+02	-1.076657521295102217e-06	-2.866038334145373412e+01
1.855984463421810506e+04	5.271772167067039163e+02	-1.078110397971099155e-06	-2.865887435463977440e+01
1.855986677707523631e+04	5.267929160711390750e+02	-1.079607381261790772e-06	-2.865736742580182650e+01
1.855988891993236757e+04	5.263981481315840938e+02	-1.081148245135728880e-06	-2.865586254623723406e+01
