# time(us)	tip(nm)	Fts(nN)	Xb(nm)
1.855557784850606549e+04	4.107794643504232113e+02	-1.768114293837726732e-06	-2.324449633302223361e+01
1.855560034850605371e+04	4.126401613216995088e+02	-1.753071580545292522e-06	-2.324260639761519087e+01
1.855562249136318496e+04	4.144666269905824834e+02	-1.738491532818929185e-06	-2.324075154966741508e+01
1.855564463422031622e+04	4.162883935471962786e+02	-1.724129428545419931e-06	-2.323890171650925396e+01
1.855566677707744748e+04	4.181054150291080305e+02	-1.709981275251638966e-06	-2.323705686567602768e+01
1.855568891993457873e+04	4.199176391578037624e+02	-1.696043220653207264e-06	-2.323521696504206346e+01
1.855571141993456695e+04	4.217541179559908642e+02	-1.682091742514052506e-06	-2.323335242645836729e+01
1.855573356279169820e+04	4.235564837570223631e+02	-1.668566116447501599e-06	-2.323152240974066984e+01
1.855575570564882946e+04	4.253538534020816542e+02	-1.655239786650449685e-06	-2.322969724832618255e+01
1.855577784850596072e+04	4.271461468559973582e+02	-1.642109428598861632e-06	-2.322787691139742350e+01
1.855580034850594529e+04	4.289620589076801593e+02	-1.628964729282587607e-06	-2.322603212461715572e+01
1.855582249136307655e+04	4.307438462638843362e+02	-1.616219849608829691e-06	-2.322422142204398554e+01
1.855584463422020781e+04	4.325202740786663753e+02	-1.603661617407530200e-06	-2.322241545288290254e+01
1.855586677707733907e+04	4.342912352819578814e+02	-1.591287154373810995e-06	-2.322061418754420004e+01
1.855588891993447032e+04	4.360566168840291539e+02	-1.579093677671870012e-06	-2.321881759673210865e+01
1.855591141993445854e+04	4.378446350979278918e+02	-1.566886146450314604e-06	-2.321699678700643688e+01
1.855593356279158979e+04	4.395984024737883260e+02	-1.555049454573996929e-06	-2.321520953274414723e+01
1.855595570564872105e+04	4.413462189955959616e+02	-1.543385865106605648e-06	-2.321342686638356057e+01
1.855597784850585231e+04	4.430879536174321629e+02	-1.531892909833251197e-06	-2.321164875976477049e+01
1.855600034850584052e+04	4.448514131079563754e+02	-1.520386890178822385e-06	-2.320984661593959686e+01
1.855602249136297178e+04	4.465804770464619651e+02	-1.509230692359363513e-06	-2.320807761783317247e+01
1.855604463422010303e+04	4.483030504915195138e+02	-1.498238026549630985e-06	-2.320631309616628002e+01
1.855606677707723429e+04	4.500189963374508579e+02	-1.487406629474923489e-06	-2.320455302384753793e+01
1.855608891993436555e+04	4.517281781065524910e+02	-1.476734273060467040e-06	-2.320279737404173304e+01
1.855611141993435376e+04	4.534578597264109021e+02	-1.466050426904500518e-06	-2.320101791001327030e+01
1.855613356279148502e+04	4.551529962967826464e+02	-1.455692057151409235e-06	-2.319927109599649739e+01
1.855615570564861628e+04	4.568409697555052844e+02	-1.445486165253130787e-06	-2.319752862506785007e+01
1.855617784850574753e+04	4.585216548143159230e+02	-1.435430611044747933e-06	-2.319579047138359940e+01
1.855620034850573575e+04	4.602218579838730648e+02	-1.425364672039921622e-06	-2.319402867884928199e+01
1.855622249136286700e+04	4.618874881569132071e+02	-1.415605751198716312e-06	-2.319229915167503009e+01
1.855624463421999826e+04	4.635454841957511576e+02	-1.405990764716666236e-06	-2.319057386522423769e+01
1.855626677707712952e+04	4.651957443859645878e+02	-1.396517596866429766e-06	-2.318885279458811155e+01
1.855628891993426078e+04	4.668381743988501853e+02	-1.387184132000073763e-06	-2.318713591508242899e+01
1.855631141993424899e+04	4.684989855490485979e+02	-1.377841048399879806e-06	-2.318539561185394859e+01
1.855633356279138025e+04	4.701253744101450138e+02	-1.368782804387385448e-06	-2.318368710805434674e+01
1.855635570564851150e+04	4.717436974907332683e+02	-1.359857872109453345e-06	-2.318198272226209866e+01
1.855637784850564276e+04	4.733538938263004638e+02	-1.351064128259192897e-06	-2.318028243066320471e+01
1.855640034850563097e+04	4.749816829397917672e+02	-1.342260741212130764e-06	-2.317855888447698121e+01
1.855642249136276223e+04	4.765753450428404676e+02	-1.333725030125886662e-06	-2.317686677574289789e+01
1.855644463421989349e+04	4.781607495190155532e+02	-1.325314100430057630e-06	-2.317517869063084035e+01
1.855646677707702474e+04	4.797378701944973614e+02	-1.317025832254909857e-06	-2.317349460614940782e+01
1.855648891993415600e+04	4.813066890571728891e+02	-1.308858111530715546e-06	-2.317181449950498973e+01
1.855651141993414421e+04	4.828922971969417972e+02	-1.300679964590927294e-06	-2.317011134568693720e+01
1.855653356279127547e+04	4.844443549352046716e+02	-1.292748892768680953e-06	-2.316843919036399768e+01
1.855655570564840673e+04	4.859881016353843961e+02	-1.284932055375569428e-06	-2.316677094530092873e+01
1.855657784850553799e+04	4.875235473474503465e+02	-1.277227390798753622e-06	-2.316510658847216320e+01
1.855660034850552620e+04	4.890752713748714768e+02	-1.269511257638706832e-06	-2.316341934749716813e+01
1.855662249136265746e+04	4.905940330999118260e+02	-1.262026570076680176e-06	-2.316176276363260200e+01
1.855664463421978871e+04	4.921045539239136133e+02	-1.254647980660187226e-06	-2.316011000268002817e+01
1.855666677707691997e+04	4.936068609670551268e+02	-1.247373534739339101e-06	-2.315846104334166355e+01
1.855668891993405123e+04	4.951009835084785209e+02	-1.240201313090032826e-06	-2.315681586449498397e+01
1.855671141993403944e+04	4.966108526860240886e+02	-1.233016184816354195e-06	-2.315514800137886553e+01
1.855673356279117070e+04	4.980885674845375206e+02	-1.226044386341724075e-06	-2.315351038097130498e+01
1.855675570564830196e+04	4.995581901422604574e+02	-1.219169271236464209e-06	-2.315187647838618545e+01
1.855677784850543321e+04	5.010197496316396837e+02	-1.212389094615371833e-06	-2.315024627318262063e+01
1.855680034850542143e+04	5.024966508485878762e+02	-1.205595063162936244e-06	-2.314859354078114961e+01
1.855682249136255268e+04	5.039420319243765221e+02	-1.199001196740958350e-06	-2.314697072849278214e+01
1.855684463421968394e+04	5.053794201188916304e+02	-1.192497319628159137e-06	-2.314535155292021074e+01
1.855686677707681520e+04	5.068088304496425849e+02	-1.186081901266721838e-06	-2.314373599426996009e+01
1.855688891993394645e+04	5.082302726395131458e+02	-1.179753468351488702e-06	-2.314212403290477482e+01
1.855691141993393467e+04	5.096664832774134766e+02	-1.173410607981251355e-06	-2.314048973688320743e+01
1.855693356279106592e+04	5.110718656935671902e+02	-1.167253306275392277e-06	-2.313888496902860581e+01
1.855695570564819718e+04	5.124692715416956617e+02	-1.161178899474059144e-06	-2.313728374015711253e+01
1.855697784850532844e+04	5.138586840316944517e+02	-1.155186148608826437e-06	-2.313568603123968614e+01
1.855700034850531665e+04	5.152622935823553689e+02	-1.149179166107999629e-06	-2.313406613895075381e+01
1.855702249136244791e+04	5.166355087333225811e+02	-1.143347510068004144e-06	-2.313247546945368072e+01
1.855704463421957917e+04	5.180006339489582388e+02	-1.137594116561955075e-06	-2.313088826339868831e+01
1.855706677707671042e+04	5.193576217326393589e+02	-1.131917969517810701e-06	-2.312930450233581681e+01
1.855708891993384168e+04	5.207064169989754419e+02	-1.126318103878533511e-06	-2.312772416795505848e+01
1.855711141993382989e+04	5.220685108844243132e+02	-1.120705111065603266e-06	-2.312612183562830381e+01
1.855713356279096115e+04	5.234005917866724076e+02	-1.115256299399753299e-06	-2.312454835477128512e+01
1.855715570564809241e+04	5.247242706810085338e+02	-1.109881141560237590e-06	-2.312297824620193154e+01
1.855717784850522366e+04	5.260394650489494097e+02	-1.104578850462262215e-06	-2.312141149215589309e+01
1.855720034850521188e+04	5.273670905086235052e+02	-1.099264904833157448e-06	-2.311982288584285783e+01
1.855722249136234313e+04	5.286649057270250296e+02	-1.094107274419595935e-06	-2.311826284147232258e+01
1.855724463421947439e+04	5.299539558972170425e+02	-1.089020343794760500e-06	-2.311670609883834970e+01
1.855726677707660201e+04	5.312341398003018185e+02	-1.084003451304142258e-06	-2.311515264069738507e+01
1.855728891993373327e+04	5.325053533894589464e+02	-1.079055957559729934e-06	-2.311360244993187507e+01
1.855731141993372148e+04	5.337877726858915821e+02	-1.074099113134437338e-06	-2.311203058543996036e+01
1.855733356279085274e+04	5.350405772691867696e+02	-1.069289664513332949e-06	-2.311048693058546633e+01
1.855735570564798400e+04	5.362840889161088853e+02	-1.064547784903715593e-06	-2.310894649222664299e+01
1.855737784850511525e+04	5.375182005793824374e+02	-1.059872888836662638e-06	-2.310740925373796273e+01
1.855740034850510347e+04	5.387624798272123599e+02	-1.055190606396935192e-06	-2.310585048178444723e+01
1.855742249136223472e+04	5.399773208845408590e+02	-1.050648995469224392e-06	-2.310431964458150489e+01
1.855744463421936598e+04	5.411824507414524987e+02	-1.046172621342061268e-06	-2.310279195782044681e+01
1.855746677707649724e+04	5.423777727411624028e+02	-1.041760901961474581e-06	-2.310126740534654743e+01
1.855748891993362849e+04	5.435631947035869871e+02	-1.037413249825134714e-06	-2.309974597111909489e+01
1.855751141993361671e+04	5.447575059100651060e+02	-1.033060487147565878e-06	-2.309820317532087586e+01
1.855753356279074796e+04	5.459227093426819692e+02	-1.028840184610726292e-06	-2.309668797956767250e+01
1.855755570564787922e+04	5.470777681093670708e+02	-1.024682125846132307e-06	-2.309517585435866494e+01
1.855757784850501048e+04	5.482226139061656340e+02	-1.020585684623330880e-06	-2.309366678409912410e+01
1.855760034850499869e+04	5.493754005084088021e+02	-1.016485630471649857e-06	-2.309213648730553814e+01
1.855762249136212995e+04	5.504994768886831480e+02	-1.012511463782130337e-06	-2.309063352924240675e+01
1.855764463421926121e+04	5.516131779050991781e+02	-1.008596950220229962e-06	-2.308913357974351754e+01
1.855766677707639246e+04	5.527164647624281315e+02	-1.004741413136280904e-06	-2.308763662364174607e+01
1.855768891993352372e+04	5.538093062146768943e+02	-1.000944163906639531e-06	-2.308614264587371068e+01
1.855771141993351193e+04	5.549090501819925976e+02	-9.971446536677701086e-07	-2.308462760706104078e+01
1.855773356279064319e+04	5.559807674264679918e+02	-9.934627823568388707e-07	-2.308313958861540627e+01
1.855775570564777445e+04	5.570419891780844637e+02	-9.898370592493682999e-07	-2.308165450368803562e+01
1.855777784850490571e+04	5.580927124907499319e+02	-9.862667587475212886e-07	-2.308017233762168630e+01
1.855780034850489392e+04	5.591496324256825119e+02	-9.826948908247746393e-07	-2.307866924051680257e+01
1.855782249136202518e+04	5.601792048421735899e+02	-9.792341042152758843e-07	-2.307719291508659509e+01
1.855784463421915643e+04	5.611983046083486215e+02	-9.758265285685995876e-07	-2.307571946490257275e+01
1.855786677707628769e+04	5.622069497302201171e+02	-9.724714301991352469e-07	-2.307424887569763072e+01
1.855788891993341895e+04	5.632051617536001231e+02	-9.691680791430108280e-07	-2.307278113329950742e+01
1.855791141993340716e+04	5.642088121484791827e+02	-9.658637088995904932e-07	-2.307129261919032714e+01
1.855793356279053842e+04	5.651860656337987621e+02	-9.626624954875097236e-07	-2.306983057361297185e+01
1.855795570564766967e+04	5.661529644443354528e+02	-9.595108754552859711e-07	-2.306837133266176210e+01
1.855797784850480093e+04	5.671095362435544303e+02	-9.564081589046892236e-07	-2.306691488253595423e+01
1.855800034850478914e+04	5.680709862862360069e+02	-9.533047977928151925e-07	-2.306543778586838300e+01
1.855802249136192040e+04	5.690068182942582098e+02	-9.502986476664304830e-07	-2.306398692081282675e+01
1.855804463421905166e+04	5.699323996588399268e+02	-9.473394276546753622e-07	-2.306253880550132962e+01
1.855806677707618292e+04	5.708477505622839772e+02	-9.444265265834271800e-07	-2.306109342649070015e+01
1.855808891993331417e+04	5.717528873074527382e+02	-9.415593580939377231e-07	-2.305965077042473510e+01
1.855811141993330239e+04	5.726621724523455441e+02	-9.386922135228353523e-07	-2.305818762122355636e+01
1.855813356279043364e+04	5.735467462581387963e+02	-9.359155746674878674e-07	-2.305675041470635378e+01
1.855815570564756490e+04	5.744211245023498122e+02	-9.331830666387360049e-07	-2.305531589136840154e+01
1.855817784850469616e+04	5.752853011752683869e+02	-9.304942180051268958e-07	-2.305388403819479137e+01
1.855820034850468437e+04	5.761529531483874962e+02	-9.278062690045310039e-07	-2.305243181241024431e+01
1.855822249136181563e+04	5.769965153973515726e+02	-9.252041376882231882e-07	-2.305100530339846543e+01
1.855824463421894689e+04	5.778298147225416415e+02	-9.226444349699287450e-07	-2.304958142579625857e+01
1.855826677707607814e+04	5.786528154827685739e+02	-9.201268170103152358e-07	-2.304816016691781044e+01
1.855828891993320940e+04	5.794654741666987547e+02	-9.176509717086063132e-07	-2.304674151415728645e+01
1.855831141993319761e+04	5.802805936615823157e+02	-9.151776929688994010e-07	-2.304530263650911337e+01
1.855833356279032887e+04	5.810722371200713496e+02	-9.127852438926016377e-07	-2.304388920001391128e+01
1.855835570564746013e+04	5.818533600161347294e+02	-9.104338114277640669e-07	-2.304247833209411667e+01
1.855837784850459138e+04	5.826238881245606080e+02	-9.081232027612960902e-07	-2.304107002045868668e+01
1.855840034850457960e+04	5.833959079861857617e+02	-9.058169717588248599e-07	-2.303964160000344918e+01
1.855842249136171085e+04	5.841448221224899271e+02	-9.035881887039142881e-07	-2.303823840510805354e+01
1.855844463421884211e+04	5.848828774127312045e+02	-9.013998007395853098e-07	-2.303683772988724243e+01
1.855846677707597337e+04	5.856099747757051546e+02	-8.992517099519939491e-07	-2.303543956235380108e+01
1.855848891993310463e+04	5.863260104617410207e+02	-8.971438368395454312e-07	-2.303404389059471313e+01
1.855851141993309284e+04	5.870421534657273241e+02	-8.950430964176205491e-07	-2.303262825228884836e+01
1.855853356279022410e+04	5.877355567466008779e+02	-8.930161284754399326e-07	-2.303123757640992864e+01
1.855855570564735535e+04	5.884175648579788458e+02	-8.910292257393659009e-07	-2.302984936081621115e+01
1.855857784850448661e+04	5.890880631812198089e+02	-8.890823582499133075e-07	-2.302846359388585640e+01
1.855860034850447482e+04	5.897574676290539628e+02	-8.871450740852245089e-07	-2.302705797220454542e+01
1.855862249136160608e+04	5.904044108736674161e+02	-8.852788536368857325e-07	-2.302567710704817117e+01
1.855864463421873734e+04	5.910394988481061773e+02	-8.834526043558774080e-07	-2.302429865592983660e+01
1.855866677707586859e+04	5.916626200660164159e+02	-8.816663054587090213e-07	-2.302292260750928676e+01
1.855868891993299985e+04	5.922736660193927491e+02	-8.799199324854202076e-07	-2.302154895051510053e+01
1.855871141993298806e+04	5.928820907695788947e+02	-8.781862580390743007e-07	-2.302015557582013727e+01
1.855873356279011568e+04	5.934684778354923083e+02	-8.765202806611298350e-07	-2.301878670625632495e+01
1.855875570564724694e+04	5.940424885902008327e+02	-8.748941120409102173e-07	-2.301742019453304877e+01
1.855877784850437820e+04	5.946040343899175014e+02	-8.733076927696778966e-07	-2.301605602964917452e+01
1.855880034850436641e+04	5.951617848137772171e+02	-8.717363278292326688e-07	-2.301467225476784861e+01
1.855882249136149767e+04	5.956979577319748387e+02	-8.702298142177996907e-07	-2.301331278823465354e+01
1.855884463421862893e+04	5.962214406770558526e+02	-8.687627882323742318e-07	-2.301195563575757319e+01
1.855886677707576018e+04	5.967321746189968508e+02	-8.673351323722228116e-07	-2.301060078659726216e+01
1.855888891993289144e+04	5.972301088329717231e+02	-8.659467127624842154e-07	-2.300924823007840558e+01
1.855891141993287965e+04	5.977229197276294599e+02	-8.645759348267043660e-07	-2.300787619561033637e+01
1.855893356279001091e+04	5.981949284936969207e+02	-8.632661457472895955e-07	-2.300652822915210294e+01
1.855895570564714217e+04	5.986540362916506410e+02	-8.619950884844405215e-07	-2.300518252351913873e+01
1.855897784850427342e+04	5.991002267150282705e+02	-8.607625631756457475e-07	-2.300383906828780667e+01
1.855900034850426164e+04	5.995403738798463564e+02	-8.595494060115776235e-07	-2.300247623889229232e+01
1.855902249136139289e+04	5.999605048520478476e+02	-8.583938972479267558e-07	-2.300113728931829726e+01
1.855904463421852415e+04	6.003677180520668344e+02	-8.572762291675097550e-07	-2.299980055907743193e+01
1.855906677707565541e+04	6.007620283900463392e+02	-8.561961470664314737e-07	-2.299846603799016975e+01
1.855908891993278667e+04	6.011434574486677320e+02	-8.551533859217421811e-07	-2.299713371593661648e+01
1.855911141993277488e+04	6.015178724945733393e+02	-8.541317529312125524e-07	-2.299578214697924494e+01
1.855913356278990614e+04	6.018734208904065781e+02	-8.531633965825712964e-07	-2.299445422793272442e+01
1.855915570564703739e+04	6.022161871399331403e+02	-8.522315170619921701e-07	-2.299312847775366464e+01
1.855917784850416865e+04	6.025462129997397369e+02	-8.513358261419318564e-07	-2.299180488655714072e+01
1.855920034850415686e+04	6.028685578051689617e+02	-8.504624598888082215e-07	-2.299046214849202840e+01
1.855922249136128812e+04	6.031730362193870860e+02	-8.496388528866208267e-07	-2.298914288026180941e+01
1.855924463421841938e+04	6.034649157402999435e+02	-8.488505696922878433e-07	-2.298782574154625635e+01
1.855926677707555064e+04	6.037442456288316635e+02	-8.480973323622616323e-07	-2.298651072268862805e+01
1.855928891993268189e+04	6.040110749080961341e+02	-8.473788709220813754e-07	-2.298519781408793605e+01
1.855931141993267011e+04	6.042694526005831221e+02	-8.466841755321693729e-07	-2.298386588129794816e+01
1.855933356278980136e+04	6.045112229418325569e+02	-8.460350489152051306e-07	-2.298255719828109989e+01
1.855935570564693262e+04	6.047406308863280628e+02	-8.454199528404838412e-07	-2.298125059689706617e+01
1.855937784850406388e+04	6.049577165080301029e+02	-8.448386693969423263e-07	-2.297994606776477511e+01
1.855940034850405209e+04	6.051657185779657766e+02	-8.442824390621785118e-07	-2.297862261089114710e+01
1.855942249136118335e+04	6.053580656764485184e+02	-8.437687359804264038e-07	-2.297732223138162766e+01
1.855944463421831460e+04	6.055381846118807516e+02	-8.432882993565543367e-07	-2.297602389615355634e+01
1.855946677707544586e+04	6.057060959690005575e+02	-8.428409892173683838e-07	-2.297472759603954273e+01
1.855948891993257712e+04	6.058618143444300586e+02	-8.424266876977013626e-07	-2.297343332192450305e+01
1.855951141993256533e+04	6.060075632899217908e+02	-8.420394175615133783e-07	-2.297212023836572214e+01
1.855953356278969659e+04	6.061387176738109019e+02	-8.416914004113764380e-07	-2.297083002142279184e+01
1.855955570564682785e+04	6.062576843829825748e+02	-8.413761757623195700e-07	-2.296954180329931461e+01
1.855957784850395910e+04	6.063644519887468505e+02	-8.410937188299644494e-07	-2.296825557508639903e+01
1.855960034850394732e+04	6.064604273245008699e+02	-8.408402692311483301e-07	-2.296695063044709784e+01
1.855962249136107857e+04	6.065425389067631841e+02	-8.406238943341200967e-07	-2.296566838726867843e+01
1.855964463421820983e+04	6.066123783044905622e+02	-8.404403499564421507e-07	-2.296438810743470782e+01
1.855966677707534109e+04	6.066699093766972055e+02	-8.402897001066179819e-07	-2.296310978223685950e+01
1.855968891993247234e+04	6.067150907105574333e+02	-8.401720285622575950e-07	-2.296183340301589482e+01
1.855971141993246056e+04	6.067483030810037690e+02	-8.400863448824948549e-07	-2.296053842147621893e+01
1.855973356278959182e+04	6.067684410740474732e+02	-8.400354900653456223e-07	-2.295926593946574457e+01
1.855975570564672307e+04	6.067760780524595248e+02	-8.400179716111261971e-07	-2.295799537760860076e+01
1.855977784850385433e+04	6.067711572893705352e+02	-8.400339376039366880e-07	-2.295672672743931741e+01
1.855980034850384254e+04	6.067532334263765961e+02	-8.400846244299825452e-07	-2.295543956468856095e+01
1.855982249136097380e+04	6.067228146127597483e+02	-8.401685944443019412e-07	-2.295417474318243123e+01
1.855984463421810506e+04	6.066796577606547771e+02	-8.402865570642623449e-07	-2.295291180811712195e+01
1.855986677707523631e+04	6.066237027802916373e+02	-8.404386942010244245e-07	-2.295165075121567355e+01
1.855988891993236757e+04	6.065548908301340134e+02	-8.406251908827482497e-07	-2.295039156424732951e+01
