# time(us)	tip(nm)	Fts(nN)	Xb(nm)
1.855557784850606549e+04	1.032295604499392283e+02	-1.547897311153238723e-05	-4.332030386696096258e+01
1.855560034850605371e+04	1.034281904015846152e+02	-1.543768735450034500e-05	-4.331771687747552591e+01
1.855562249136318496e+04	1.036204609769079354e+02	-1.539788809473758676e-05	-4.331517535643165928e+01
1.855564463422031622e+04	1.038095257631733546e+02	-1.535890998118206901e-05	-4.331263818476256233e+01
1.855566677707744748e+04	1.039953619651634824e+02	-1.532074938078550584e-05	-4.331010534220023800e+01
1.855568891993457873e+04	1.041779485732305375e+02	-1.528340243172767764e-05	-4.330757680859849046e+01
1.855571141993456695e+04	1.043601314789258652e+02	-1.524628239369034881e-05	-4.330501188534467616e+01
1.855573356279169820e+04	1.045361087721303619e+02	-1.521056345708545673e-05	-4.330249197840072384e+01
1.855575570564882946e+04	1.047087816966138263e+02	-1.517564565548851369e-05	-4.329997632038153199e+01
1.855577784850596072e+04	1.048781341578428368e+02	-1.514152472547887559e-05	-4.329746489162028666e+01
1.855580034850594529e+04	1.050468009552555060e+02	-1.510766535226624606e-05	-4.329491726793975914e+01
1.855582249136307655e+04	1.052094123080481722e+02	-1.507513822651499545e-05	-4.329241430658726131e+01
1.855584463422020781e+04	1.053686574896723158e+02	-1.504339549129148658e-05	-4.328991551587983366e+01
1.855586677707733907e+04	1.055245215042225482e+02	-1.501243329275837708e-05	-4.328742087661505167e+01
1.855588891993447032e+04	1.056769890690670763e+02	-1.498224799088983534e-05	-4.328493036970382946e+01
1.855591141993445854e+04	1.058284204842094169e+02	-1.495236813477493097e-05	-4.328240390665160930e+01
1.855593356279158979e+04	1.059739917430943308e+02	-1.492373914937345976e-05	-4.327992167351636255e+01
1.855595570564872105e+04	1.061161168106732617e+02	-1.489587774001920574e-05	-4.327744351583781679e+01
1.855597784850585231e+04	1.062547774534271952e+02	-1.486878146428287040e-05	-4.327496941497383176e+01
1.855600034850584052e+04	1.063921059779735145e+02	-1.484202975237119851e-05	-4.327245954566273412e+01
1.855602249136297178e+04	1.065237219975300889e+02	-1.481647013477539070e-05	-4.326999356762299698e+01
1.855604463422010303e+04	1.066518117805872663e+02	-1.479167051019610691e-05	-4.326753159082827693e+01
1.855606677707723429e+04	1.067763523871472131e+02	-1.476762994036981506e-05	-4.326507359706976530e+01
1.855608891993436555e+04	1.068973196401416601e+02	-1.474434786847978319e-05	-4.326261956824465926e+01
1.855611141993435376e+04	1.070165515653820592e+02	-1.472146703887443750e-05	-4.326013000115028007e+01
1.855613356279148502e+04	1.071302361370173628e+02	-1.469971400761690737e-05	-4.325768391152882941e+01
1.855615570564861628e+04	1.072402674395110722e+02	-1.467871999206407916e-05	-4.325524173287389829e+01
1.855617784850574753e+04	1.073466169727711872e+02	-1.465848582808731488e-05	-4.325280344750019168e+01
1.855620034850573575e+04	1.074508803524713301e+02	-1.463870479720339512e-05	-4.325032980481575606e+01
1.855622249136286700e+04	1.075497173609302592e+02	-1.462000626390681161e-05	-4.324789931544295030e+01
1.855624463421999826e+04	1.076447827224624945e+02	-1.460207169647942335e-05	-4.324547266662563061e+01
1.855626677707712952e+04	1.077360460105640385e+02	-1.458490286169522686e-05	-4.324304984108397321e+01
1.855628891993426078e+04	1.078234768737327869e+02	-1.456850165559708296e-05	-4.324063082163743132e+01
1.855631141993424899e+04	1.079083613569905822e+02	-1.455262425180840845e-05	-4.323817666682997185e+01
1.855633356279138025e+04	1.079879749104138540e+02	-1.453777673409714923e-05	-4.323576526912537332e+01
1.855635570564851150e+04	1.080636676258924780e+02	-1.452370286274319430e-05	-4.323335762629032075e+01
1.855637784850564276e+04	1.081354121694773625e+02	-1.451040456353161964e-05	-4.323095372153535720e+01
1.855640034850563097e+04	1.082042430485302589e+02	-1.449768807101502949e-05	-4.322851485593538712e+01
1.855642249136276223e+04	1.082679507430008954e+02	-1.448595873728268837e-05	-4.322611843697328737e+01
1.855644463421989349e+04	1.083276379038574788e+02	-1.447500984664726175e-05	-4.322372570602877317e+01
1.855646677707702474e+04	1.083832848421789379e+02	-1.446484253443552518e-05	-4.322133664669251374e+01
1.855648891993415600e+04	1.084348744695818425e+02	-1.445545761691365665e-05	-4.321895124264819543e+01
1.855651141993414421e+04	1.084831255429766088e+02	-1.444672321968468950e-05	-4.321653109183951358e+01
1.855653356279127547e+04	1.085264950170665657e+02	-1.443891667001395451e-05	-4.321415300810188143e+01
1.855655570564840673e+04	1.085657738741153366e+02	-1.443189260999685150e-05	-4.321177853100094524e+01
1.855657784850553799e+04	1.086009578406706169e+02	-1.442565015946518197e-05	-4.320940764458757144e+01
1.855660034850552620e+04	1.086325141934806169e+02	-1.442010621449364583e-05	-4.320700217976476409e+01
1.855662249136265746e+04	1.086594444275280722e+02	-1.441543482377968947e-05	-4.320463848451304045e+01
1.855664463421978871e+04	1.086822896543334167e+02	-1.441153922055759710e-05	-4.320227833238566006e+01
1.855666677707691997e+04	1.087010610646677407e+02	-1.440841635797731585e-05	-4.319992170779051577e+01
1.855668891993405123e+04	1.087157738917888707e+02	-1.440606261330518494e-05	-4.319756859522291137e+01
1.855671141993403944e+04	1.087265865984136468e+02	-1.440445440069440235e-05	-4.319518111080211042e+01
1.855673356279117070e+04	1.087331795872324847e+02	-1.440363792577488001e-05	-4.319283503214671782e+01
1.855675570564830196e+04	1.087357843561177049e+02	-1.440357614677456347e-05	-4.319049241927816496e+01
1.855677784850543321e+04	1.087344321363404731e+02	-1.440426314919061750e-05	-4.318815325703688757e+01
1.855680034850542143e+04	1.087290409142649850e+02	-1.440572158048687700e-05	-4.318577988540704382e+01
1.855682249136255268e+04	1.087198209723766809e+02	-1.440789807872146938e-05	-4.318344763432715894e+01
1.855684463421968394e+04	1.087067603107555414e+02	-1.441080237008043263e-05	-4.318111878866093178e+01
1.855686677707681520e+04	1.086899041694138646e+02	-1.441442655026664297e-05	-4.317879333358487770e+01
1.855688891993394645e+04	1.086693007377158722e+02	-1.441876230517821475e-05	-4.317647125435770761e+01
1.855691141993393467e+04	1.086445789548005934e+02	-1.442388793318876324e-05	-4.317411516510500036e+01
1.855693356279106592e+04	1.086165776434550168e+02	-1.442963159127392518e-05	-4.317179984753670396e+01
1.855695570564819718e+04	1.085849894489342660e+02	-1.443605971971002943e-05	-4.316948786184854470e+01
1.855697784850532844e+04	1.085498715249876369e+02	-1.444316282710134918e-05	-4.316717919362426414e+01
1.855700034850531665e+04	1.085106319359483678e+02	-1.445106195641543077e-05	-4.316483667220840204e+01
1.855702249136244791e+04	1.084685768721778345e+02	-1.445949645209348496e-05	-4.316253464891096314e+01
1.855704463421957917e+04	1.084231717453649964e+02	-1.446857655398176521e-05	-4.316023590007618793e+01
1.855706677707671042e+04	1.083744773845837557e+02	-1.447829246989168814e-05	-4.315794041160444294e+01
1.855708891993384168e+04	1.083225546715414396e+02	-1.448863447826081965e-05	-4.315564816947360782e+01
1.855711141993382989e+04	1.082665500211046776e+02	-1.449977473564139961e-05	-4.315332226663849013e+01
1.855713356279096115e+04	1.082083021479398468e+02	-1.451135004898826526e-05	-4.315103652722947913e+01
1.855715570564809241e+04	1.081470065139937020e+02	-1.452352313640200354e-05	-4.314875399233365272e+01
1.855717784850522366e+04	1.080827209391408843e+02	-1.453628512336067974e-05	-4.314647464823541156e+01
1.855720034850521188e+04	1.080143938226039637e+02	-1.454984738538487256e-05	-4.314416179488489433e+01
1.855722249136234313e+04	1.079442495573673995e+02	-1.456377111967036830e-05	-4.314188884244983768e+01
1.855724463421947439e+04	1.078712796257700575e+02	-1.457825922917313782e-05	-4.313961903989723368e+01
1.855726677707660201e+04	1.077955343673405793e+02	-1.459330446501021956e-05	-4.313735237381023069e+01
1.855728891993373327e+04	1.077170617510537909e+02	-1.460890007554059375e-05	-4.313508883084511325e+01
1.855731141993372148e+04	1.076345765492893918e+02	-1.462530457929498193e-05	-4.313279196454349318e+01
1.855733356279085274e+04	1.075507407208362594e+02	-1.464199144554309799e-05	-4.313053467791989704e+01
1.855735570564798400e+04	1.074643065541775258e+02	-1.465921158260044224e-05	-4.312828047461062653e+01
1.855737784850511525e+04	1.073753113617310930e+02	-1.467696045522335714e-05	-4.312602934156139156e+01
1.855740034850510347e+04	1.072822929996366099e+02	-1.469553312397873909e-05	-4.312374503148411264e+01
1.855742249136223472e+04	1.071882366154879094e+02	-1.471433656049224594e-05	-4.312150004907253731e+01
1.855744463421936598e+04	1.070917150319378521e+02	-1.473365854853963203e-05	-4.311925809797528331e+01
1.855746677707649724e+04	1.069927546359541424e+02	-1.475349684863678822e-05	-4.311701916542028812e+01
1.855748891993362849e+04	1.068913792853400082e+02	-1.477384976300822734e-05	-4.311478323870451135e+01
1.855751141993361671e+04	1.067859172446096068e+02	-1.479505687018423608e-05	-4.311251431459594130e+01
1.855753356279074796e+04	1.066797359762411617e+02	-1.481644423695143747e-05	-4.311028440969656828e+01
1.855755570564787922e+04	1.065711978500165031e+02	-1.483834412755679919e-05	-4.310805747273724364e+01
1.855757784850501048e+04	1.064603181271763788e+02	-1.486075674831535322e-05	-4.310583349128856412e+01
1.855760034850499869e+04	1.063452654802848087e+02	-1.488405667596142475e-05	-4.310357665383977377e+01
1.855762249136212995e+04	1.062297047159792385e+02	-1.490750518197481977e-05	-4.310135859356317667e+01
1.855764463421926121e+04	1.061118393226049079e+02	-1.493146920590748494e-05	-4.309914345171275585e+01
1.855766677707639246e+04	1.059916793404301529e+02	-1.495595024287386543e-05	-4.309693121612591682e+01
1.855768891993352372e+04	1.058692341123949348e+02	-1.498094999501517141e-05	-4.309472187470537818e+01
1.855771141993351193e+04	1.057424822838308955e+02	-1.500688621912767786e-05	-4.309247985091787569e+01
1.855773356279064319e+04	1.056154565153384937e+02	-1.503293754490393611e-05	-4.309027630799334219e+01
1.855775570564777445e+04	1.054861719043467758e+02	-1.505951349665646686e-05	-4.308807562314050443e+01
1.855777784850490571e+04	1.053546373928952846e+02	-1.508661613714248544e-05	-4.308587778452090333e+01
1.855780034850489392e+04	1.052186864075356709e+02	-1.511469751846394704e-05	-4.308364740022928174e+01
1.855782249136202518e+04	1.050826450306750246e+02	-1.514286817366249746e-05	-4.308145526424671345e+01
1.855784463421915643e+04	1.049443842166126046e+02	-1.517157144873932033e-05	-4.307926593917371605e+01
1.855786677707628769e+04	1.048039157953489138e+02	-1.520080909136349429e-05	-4.307707941342433600e+01
1.855788891993341895e+04	1.046612526869007098e+02	-1.523058268901922396e-05	-4.307489567547453646e+01
1.855791141993340716e+04	1.045140550255239447e+02	-1.526138694195846698e-05	-4.307267955974970874e+01
1.855793356279053842e+04	1.043670113395918122e+02	-1.529224515278160832e-05	-4.307050140757540646e+01
1.855795570564766967e+04	1.042178193956483483e+02	-1.532364292235753914e-05	-4.306832600881404005e+01
1.855797784850480093e+04	1.040664972028283586e+02	-1.535558100905953967e-05	-4.306615335218648255e+01
1.855800034850478914e+04	1.039105721549152719e+02	-1.538858823452944453e-05	-4.306394844998916227e+01
1.855802249136192040e+04	1.037550151016440338e+02	-1.542161706663841100e-05	-4.306178128780797465e+01
1.855804463421905166e+04	1.035973897666057013e+02	-1.545518716821495822e-05	-4.305961683410399132e+01
1.855806677707618292e+04	1.034377189760315048e+02	-1.548929844897340726e-05	-4.305745507783733217e+01
1.855808891993331417e+04	1.032760264938711288e+02	-1.552395065000951839e-05	-4.305529600802674395e+01
1.855811141993330239e+04	1.031096804800289135e+02	-1.555971542410391180e-05	-4.305310485506143436e+01
1.855813356279043364e+04	1.029439872430530301e+02	-1.559545687086643810e-05	-4.305095116834201008e+01
1.855815570564756490e+04	1.027763479437889345e+02	-1.563173775861192259e-05	-4.304880013530964078e+01
1.855817784850469616e+04	1.026067882835098857e+02	-1.566855749975445340e-05	-4.304665174521518622e+01
1.855820034850468437e+04	1.024325531067738382e+02	-1.570652249500935745e-05	-4.304447139988052129e+01
1.855822249136181563e+04	1.022591993190570747e+02	-1.574442702926763624e-05	-4.304232830583929115e+01
1.855824463421894689e+04	1.020840011762267352e+02	-1.578286905507421384e-05	-4.304018782265883658e+01
1.855826677707607814e+04	1.019069824879389046e+02	-1.582184844930818591e-05	-4.303804993981670179e+01
1.855828891993320940e+04	1.017281659121709936e+02	-1.586136535527280569e-05	-4.303591464684607359e+01
1.855831141993319761e+04	1.015446454345483005e+02	-1.590207070654051799e-05	-4.303374755581091193e+01
1.855833356279032887e+04	1.013622668745049964e+02	-1.594267315547402418e-05	-4.303161745275625094e+01
1.855835570564746013e+04	1.011781489985110625e+02	-1.598381581854726858e-05	-4.302948990833723997e+01
1.855837784850459138e+04	1.009923070907868663e+02	-1.602550056402666720e-05	-4.302736491230724880e+01
1.855840034850457960e+04	1.008017149423869228e+02	-1.606841544819107316e-05	-4.302520824202613170e+01
1.855842249136171085e+04	1.006124333078436450e+02	-1.611120125555867499e-05	-4.302308835294181932e+01
1.855844463421884211e+04	1.004214578155961135e+02	-1.615453861485163803e-05	-4.302097098166673561e+01
1.855846677707597337e+04	1.002287924919579041e+02	-1.619843213537163146e-05	-4.301885611816901900e+01
1.855848891993310463e+04	1.000344380959544992e+02	-1.624288724832823486e-05	-4.301674375246968651e+01
1.855851141993309284e+04	9.983521605907155561e+01	-1.628864112371154112e-05	-4.301459986468723429e+01
1.855853356279022410e+04	9.963744462912903543e+01	-1.633424857407466389e-05	-4.301249250474400299e+01
1.855855570564735535e+04	9.943796541804910305e+01	-1.638043942766744660e-05	-4.301038761281743916e+01
1.855857784850448661e+04	9.923676501301319774e+01	-1.642722283757243055e-05	-4.300828517913726046e+01
1.855860034850447482e+04	9.903053881088649746e+01	-1.647537825014246452e-05	-4.300615134326746158e+01
1.855862249136160608e+04	9.882581271232105280e+01	-1.652338825476870867e-05	-4.300405383623130007e+01
1.855864463421873734e+04	9.861930309296077724e+01	-1.657202455140507796e-05	-4.300195875828214298e+01
1.855866677707586859e+04	9.841098223115436383e+01	-1.662130038931244593e-05	-4.299986609985371189e+01
1.855868891993299985e+04	9.820081907082106909e+01	-1.667123004353813991e-05	-4.299777585142977898e+01
1.855871141993298806e+04	9.798534380351019024e+01	-1.672265048309153128e-05	-4.299565434819734833e+01
1.855873356279011568e+04	9.777135916086797351e+01	-1.677394582337482428e-05	-4.299356892992181400e+01
1.855875570564724694e+04	9.755542008382944630e+01	-1.682594408787652204e-05	-4.299148589324872205e+01
1.855877784850437820e+04	9.733748398886349662e+01	-1.687866347655752464e-05	-4.298940522885993687e+01
1.855880034850436641e+04	9.711394100365478721e+01	-1.693299151009460874e-05	-4.298729342580910640e+01
1.855882249136149767e+04	9.689184024878554169e+01	-1.698722370794963435e-05	-4.298521751611786357e+01
1.855884463421862893e+04	9.666760147750451893e+01	-1.704223714984543634e-05	-4.298314395089964535e+01
1.855886677707576018e+04	9.644117479607534449e+01	-1.709805333053932678e-05	-4.298107272102991772e+01
1.855888891993289144e+04	9.621250928809195102e+01	-1.715469442554513500e-05	-4.297900381743168197e+01
1.855891141993287965e+04	9.597780920372430558e+01	-1.721311754041482262e-05	-4.297690391797652865e+01
1.855893356279001091e+04	9.574447270098993101e+01	-1.727149163427813309e-05	-4.297483967703566776e+01
1.855895570564714217e+04	9.550874107047710027e+01	-1.733076098823223916e-05	-4.297277773527397216e+01
1.855897784850427342e+04	9.527056274307587103e+01	-1.739094984212295189e-05	-4.297071808380260194e+01
1.855900034850426164e+04	9.502598423243277637e+01	-1.745307666197441375e-05	-4.296862754903840198e+01
1.855902249136139289e+04	9.478271942253441296e+01	-1.751519435012909002e-05	-4.296657248824934072e+01
1.855904463421852415e+04	9.453685790789188559e+01	-1.757830641006417129e-05	-4.296451969121924463e+01
1.855906677707565541e+04	9.428835284275356798e+01	-1.764243801565806095e-05	-4.296246914924304150e+01
1.855908891993278667e+04	9.403715930429881098e+01	-1.770761440346929895e-05	-4.296042085366092778e+01
1.855911141993277488e+04	9.377911638375621806e+01	-1.777493820806124849e-05	-4.295834181321600198e+01
1.855913356278990614e+04	9.352237507091565760e+01	-1.784229768365985349e-05	-4.295629802050660118e+01
1.855915570564703739e+04	9.326282392818900746e+01	-1.791077782843200389e-05	-4.295425644834272561e+01
1.855917784850416865e+04	9.300042810076941180e+01	-1.798040354748958429e-05	-4.295221708824323770e+01
1.855920034850415686e+04	9.273085336433372561e+01	-1.805235113917238820e-05	-4.295014709241977613e+01
1.855922249136128812e+04	9.246262845305307110e+01	-1.812436134455726046e-05	-4.294811216651901731e+01
1.855924463421841938e+04	9.219147206208266709e+01	-1.819759087468684778e-05	-4.294607942736691797e+01
1.855926677707555064e+04	9.191736177790178886e+01	-1.827206363151404633e-05	-4.294404886665691379e+01
1.855928891993268189e+04	9.164027841674963781e+01	-1.834780321299051621e-05	-4.294202047612536433e+01
1.855931141993267011e+04	9.135566414698142523e+01	-1.842608601984843973e-05	-4.293996158411653141e+01
1.855933356278980136e+04	9.107254140328670644e+01	-1.850445016917951212e-05	-4.293793754399290918e+01
1.855935570564693262e+04	9.078640700127816388e+01	-1.858415045036360025e-05	-4.293591564938077454e+01
1.855937784850406388e+04	9.049725429412599453e+01	-1.866520925417863960e-05	-4.293389589218629254e+01
1.855940034850405209e+04	9.020034222965580284e+01	-1.874898981710129941e-05	-4.293184573937794113e+01
1.855942249136118335e+04	8.990509552349855937e+01	-1.883285463995629006e-05	-4.292983026705356764e+01
1.855944463421831460e+04	8.960682716510952162e+01	-1.891814409639145633e-05	-4.292781690798618399e+01
1.855946677707544586e+04	8.930554098759949966e+01	-1.900487976638161843e-05	-4.292580565424785277e+01
1.855948891993257712e+04	8.900124294131434510e+01	-1.909308314379006886e-05	-4.292379649795147145e+01
1.855951141993256533e+04	8.868895981359379732e+01	-1.918423467043806833e-05	-4.292175707628720716e+01
1.855953356278969659e+04	8.837861498299908192e+01	-1.927546244013464484e-05	-4.291975212488862468e+01
1.855955570564682785e+04	8.806528668829763262e+01	-1.936822284254679531e-05	-4.291774924738786723e+01
1.855957784850395910e+04	8.774898699000735292e+01	-1.946253766432509447e-05	-4.291574843605911127e+01
1.855960034850394732e+04	8.742455535247788134e+01	-1.955998861938324708e-05	-4.291371746209338767e+01
1.855962249136107857e+04	8.710230498834332025e+01	-1.965750470041485127e-05	-4.291172079310512544e+01
1.855964463421820983e+04	8.677712403186239953e+01	-1.975664275752775983e-05	-4.290972616722597621e+01
1.855966677707534109e+04	8.644902667759717474e+01	-1.985742606361181023e-05	-4.290773357688787115e+01
1.855968891993247234e+04	8.611802707458730310e+01	-1.995987845827593252e-05	-4.290574301456157968e+01
1.855971141993246056e+04	8.577873023996582447e+01	-2.006571821428021227e-05	-4.290372241601765069e+01
1.855973356278959182e+04	8.544192114665901272e+01	-2.017161088687901947e-05	-4.290173591968894584e+01
1.855975570564672307e+04	8.510225024636915236e+01	-2.027924874962826326e-05	-4.289975142889517201e+01
1.855977784850385433e+04	8.475972966126589370e+01	-2.038865866443898171e-05	-4.289776893626043375e+01
1.855980034850384254e+04	8.440877715245770219e+01	-2.050167702463637779e-05	-4.289575650714256483e+01
1.855982249136097380e+04	8.406054452854284875e+01	-2.061474509989681008e-05	-4.289377802078133328e+01
1.855984463421810506e+04	8.370949328560544700e+01	-2.072967204036675355e-05	-4.289180151055976609e+01
1.855986677707523631e+04	8.335563170143416301e+01	-2.084648871670842908e-05	-4.288982696925198468e+01
1.855988891993236757e+04	8.299896701980743785e+01	-2.096522710387686904e-05	-4.288785438966890950e+01
