# time(us)	tip(nm)	Fts(nN)	Xb(nm)
1.855557784850606549e+04	1.214173292530321220e+02	-1.232414107227404332e-05	-4.284668524614529161e+01
1.855560034850605371e+04	1.216504129793233915e+02	-1.228965843735127658e-05	-4.284410730450154148e+01
1.855562249136318496e+04	1.218763261658156409e+02	-1.225637935053333084e-05	-4.284157472782762710e+01
1.855564463422031622e+04	1.220987492417917792e+02	-1.222375117895650211e-05	-4.283904654004891199e+01
1.855566677707744748e+04	1.223176386757009055e+02	-1.219177345560866840e-05	-4.283652272059880062e+01
1.855568891993457873e+04	1.225329542351273346e+02	-1.216044529706505039e-05	-4.283400324903520584e+01
1.855571141993456695e+04	1.227480437806353706e+02	-1.212927588439665223e-05	-4.283144757355207588e+01
1.855573356279169820e+04	1.229560449165013267e+02	-1.209925302742142208e-05	-4.282893680623703148e+01
1.855575570564882946e+04	1.231603704393166794e+02	-1.206987471283314162e-05	-4.282643032589644605e+01
1.855577784850596072e+04	1.233609928225765771e+02	-1.204113856937088634e-05	-4.282392811257822984e+01
1.855580034850594529e+04	1.235610324495288097e+02	-1.201259397398578121e-05	-4.282138989136888085e+01
1.855582249136307655e+04	1.237541166011121874e+02	-1.198514411510906891e-05	-4.281889622074071866e+01
1.855584463422020781e+04	1.239434311767914068e+02	-1.195832756746453497e-05	-4.281640675767724957e+01
1.855586677707733907e+04	1.241289589680404362e+02	-1.193214094607984361e-05	-4.281392148270103348e+01
1.855588891993447032e+04	1.243106847739160798e+02	-1.190658070732681163e-05	-4.281144037645034217e+01
1.855591141993445854e+04	1.244914333305578396e+02	-1.188124605367240010e-05	-4.280892350266053370e+01
1.855593356279158979e+04	1.246654544639203266e+02	-1.185693746979260876e-05	-4.280645074269712325e+01
1.855595570564872105e+04	1.248356372480537573e+02	-1.183324403098958722e-05	-4.280398209375454854e+01
1.855597784850585231e+04	1.250019718433650553e+02	-1.181016196671844436e-05	-4.280151753692740613e+01
1.855600034850584052e+04	1.251670379870451058e+02	-1.178733002005654267e-05	-4.279901740148007860e+01
1.855602249136297178e+04	1.253255865216276703e+02	-1.176546932432211853e-05	-4.279656103785745813e+01
1.855604463422010303e+04	1.254802599242708112e+02	-1.174420905762153696e-05	-4.279410871000062855e+01
1.855606677707723429e+04	1.256310492740276885e+02	-1.172354585505508305e-05	-4.279166039944662714e+01
1.855608891993436555e+04	1.257779452424165072e+02	-1.170347653841522409e-05	-4.278921608784062869e+01
1.855611141993435376e+04	1.259232121608708326e+02	-1.168368880427051107e-05	-4.278673642927922316e+01
1.855613356279148502e+04	1.260622274436676378e+02	-1.166480807793317797e-05	-4.278430012469691235e+01
1.855615570564861628e+04	1.261973166189441429e+02	-1.164651305545464221e-05	-4.278186776434831273e+01
1.855617784850574753e+04	1.263284667330666622e+02	-1.162880156200570212e-05	-4.277943933030449131e+01
1.855620034850573575e+04	1.264576826474436047e+02	-1.161140018635540735e-05	-4.277697573142030762e+01
1.855622249136286700e+04	1.265808464740440371e+02	-1.159485975729721896e-05	-4.277455515922458318e+01
1.855624463421999826e+04	1.267000241784177206e+02	-1.157889811321490459e-05	-4.277213845988519836e+01
1.855626677707712952e+04	1.268151973310537954e+02	-1.156351430013065833e-05	-4.276972561588669919e+01
1.855628891993426078e+04	1.269263460909951817e+02	-1.154870766975624694e-05	-4.276731660981483429e+01
1.855631141993424899e+04	1.270351434507599322e+02	-1.153425308474645319e-05	-4.276487266225513650e+01
1.855633356279138025e+04	1.271381127287892809e+02	-1.152060935693848701e-05	-4.276247134139872941e+01
1.855635570564851150e+04	1.272369898867298303e+02	-1.150754260518413205e-05	-4.276007380654986889e+01
1.855637784850564276e+04	1.273317502415564917e+02	-1.149505328603992195e-05	-4.275768004069283990e+01
1.855640034850563097e+04	1.274237957644654102e+02	-1.148295470652181700e-05	-4.275525150895396820e+01
1.855642249136276223e+04	1.275101778629413474e+02	-1.147163184051554732e-05	-4.275286529053146722e+01
1.855644463421989349e+04	1.275923644908601062e+02	-1.146088903108320950e-05	-4.275048279036688115e+01
1.855646677707702474e+04	1.276703289382408286e+02	-1.145072746047040609e-05	-4.274810399183179754e+01
1.855648891993415600e+04	1.277440446221200858e+02	-1.144114840959013991e-05	-4.274572887839263302e+01
1.855651141993414421e+04	1.278145702155431849e+02	-1.143201292933524016e-05	-4.274331921447333826e+01
1.855653356279127547e+04	1.278796410276957261e+02	-1.142361241904904367e-05	-4.274095148077540074e+01
1.855655570564840673e+04	1.279403866613469063e+02	-1.141579850761941637e-05	-4.273858738287282932e+01
1.855657784850553799e+04	1.279967840706158881e+02	-1.140857248701415917e-05	-4.273622690460579321e+01
1.855660034850552620e+04	1.280496151213753535e+02	-1.140183333830701584e-05	-4.273383204523955214e+01
1.855662249136265746e+04	1.280971830042585680e+02	-1.139579607415161653e-05	-4.273147881586338315e+01
1.855664463421978871e+04	1.281403445472205647e+02	-1.139034985012792338e-05	-4.272912915793407507e+01
1.855666677707691997e+04	1.281790852925190052e+02	-1.138549533288775923e-05	-4.272678305565538182e+01
1.855668891993405123e+04	1.282133936639989997e+02	-1.138123294001317479e-05	-4.272444049331995330e+01
1.855671141993403944e+04	1.282437065448305304e+02	-1.137750846356684187e-05	-4.272206375768407582e+01
1.855673356279117070e+04	1.282690565454860234e+02	-1.137443995714980105e-05	-4.271972828493274221e+01
1.855675570564830196e+04	1.282899592888723248e+02	-1.137196299986982899e-05	-4.271739630528205112e+01
1.855677784850543321e+04	1.283064172159277518e+02	-1.137007669888599112e-05	-4.271506780337594478e+01
1.855680034850542143e+04	1.283185942800199939e+02	-1.136876367609057435e-05	-4.271270529159814089e+01
1.855682249136255268e+04	1.283261145891094372e+02	-1.136806390220345157e-05	-4.271038375493370154e+01
1.855684463421968394e+04	1.283292219652109054e+02	-1.136794967455681280e-05	-4.270806565021629098e+01
1.855686677707681520e+04	1.283279354241471424e+02	-1.136841845283883694e-05	-4.270575096243151592e+01
1.855688891993394645e+04	1.283222782533775899e+02	-1.136946726377548375e-05	-4.270343967664886975e+01
1.855691141993393467e+04	1.283120812802734179e+02	-1.137112362216350763e-05	-4.270109458152432325e+01
1.855693356279106592e+04	1.282977004231912588e+02	-1.137333105420014056e-05	-4.269879010955880716e+01
1.855695570564819718e+04	1.282790446847077135e+02	-1.137610694798890601e-05	-4.269648899506397299e+01
1.855697784850532844e+04	1.282561539587364337e+02	-1.137944663292101833e-05	-4.269419122343973072e+01
1.855700034850531665e+04	1.282286010542976555e+02	-1.138341247507061690e-05	-4.269185980021227067e+01
1.855702249136244791e+04	1.281973086504910384e+02	-1.138787306921010259e-05	-4.268956872418458204e+01
1.855704463421957917e+04	1.281619238234637805e+02	-1.139288109596915005e-05	-4.268728094747990554e+01
1.855706677707671042e+04	1.281225004360795765e+02	-1.139843046381951546e-05	-4.268499645581996305e+01
1.855708891993384168e+04	1.280790951743491632e+02	-1.140451480027326145e-05	-4.268271523500546039e+01
1.855711141993382989e+04	1.280309720696879481e+02	-1.141123843616568832e-05	-4.268040055616916817e+01
1.855713356279096115e+04	1.279797210509137813e+02	-1.141838100487738715e-05	-4.267812588694690135e+01
1.855715570564809241e+04	1.279246729405837470e+02	-1.142603799608084054e-05	-4.267585444621531821e+01
1.855717784850522366e+04	1.278658924000180548e+02	-1.143420229509255879e-05	-4.267358622008658386e+01
1.855720034850521188e+04	1.278024082646943214e+02	-1.144301051656470585e-05	-4.267128468823580789e+01
1.855722249136234313e+04	1.277363032202779465e+02	-1.145217571236500704e-05	-4.266902290124593833e+01
1.855724463421947439e+04	1.276666656887417588e+02	-1.146182647228157196e-05	-4.266676428743154759e+01
1.855726677707660201e+04	1.275935623018960854e+02	-1.147195564720542006e-05	-4.266450883320836596e+01
1.855728891993373327e+04	1.275170592263089304e+02	-1.148255619496322564e-05	-4.266225652506646782e+01
1.855731141993372148e+04	1.274359071274774351e+02	-1.149380346276390432e-05	-4.265997109814274779e+01
1.855733356279085274e+04	1.273527472653298958e+02	-1.150533361188055495e-05	-4.265772509213061170e+01
1.855735570564798400e+04	1.272663808233929501e+02	-1.151731499141546680e-05	-4.265548219189776802e+01
1.855737784850511525e+04	1.271768685639914338e+02	-1.152974142793683490e-05	-4.265324238422821423e+01
1.855740034850510347e+04	1.270827505956091557e+02	-1.154281814233514193e-05	-4.265096960487837663e+01
1.855742249136223472e+04	1.269870717685608668e+02	-1.155612442212828320e-05	-4.264873599232563350e+01
1.855744463421936598e+04	1.268884164557155998e+02	-1.156985918802067919e-05	-4.264650543290957074e+01
1.855746677707649724e+04	1.267868353993712560e+02	-1.158401772871716194e-05	-4.264427791370087562e+01
1.855748891993362849e+04	1.266823763453838865e+02	-1.159859576492893139e-05	-4.264205342184032332e+01
1.855751141993361671e+04	1.265733304019557437e+02	-1.161383468946332155e-05	-4.263979613889245712e+01
1.855753356279074796e+04	1.264632012692327265e+02	-1.162924732312718815e-05	-4.263757771174255140e+01
1.855755570564787922e+04	1.263503188451785348e+02	-1.164506933291007235e-05	-4.263536227357699460e+01
1.855757784850501048e+04	1.262347178780581487e+02	-1.166129832213330023e-05	-4.263314981181439833e+01
1.855760034850499869e+04	1.261145000912394494e+02	-1.167820397898101332e-05	-4.263090470109818853e+01
1.855762249136212995e+04	1.259935104881371473e+02	-1.169524816595328092e-05	-4.262869820217144223e+01
1.855764463421926121e+04	1.258698874387076501e+02	-1.171269500906053035e-05	-4.262649464211112615e+01
1.855766677707639246e+04	1.257436529029754695e+02	-1.173054401127162086e-05	-4.262429400860665396e+01
1.855768891993352372e+04	1.256148259472853823e+02	-1.174879511765298620e-05	-4.262209628941393902e+01
1.855771141993351193e+04	1.254812824861812715e+02	-1.176775286079207396e-05	-4.261986609579461316e+01
1.855773356279064319e+04	1.253472759943983732e+02	-1.178681618510839577e-05	-4.261767421527088118e+01
1.855775570564777445e+04	1.252107189732870012e+02	-1.180628389974521289e-05	-4.261548521252709776e+01
1.855777784850490571e+04	1.250716208845225736e+02	-1.182615748381098872e-05	-4.261329907558175023e+01
1.855780034850489392e+04	1.249276843025889718e+02	-1.184676919101443721e-05	-4.261108060159583033e+01
1.855782249136202518e+04	1.247834848805962764e+02	-1.186746676790437255e-05	-4.260890020630246511e+01
1.855784463421915643e+04	1.246367632388780038e+02	-1.188857638647205451e-05	-4.260672264105826912e+01
1.855786677707628769e+04	1.244875233522167264e+02	-1.191010053806924807e-05	-4.260454789413800825e+01
1.855788891993341895e+04	1.243357685396870522e+02	-1.193204187213225373e-05	-4.260237595387927456e+01
1.855791141993340716e+04	1.241789930042521775e+02	-1.195476728059164339e-05	-4.260017184531001533e+01
1.855793356279053842e+04	1.240221766349247048e+02	-1.197755821150589257e-05	-4.259800552843790200e+01
1.855795570564766967e+04	1.238628542022393049e+02	-1.200077488675711797e-05	-4.259584198342884775e+01
1.855797784850480093e+04	1.237010291492985914e+02	-1.202442021025199131e-05	-4.259368119886902093e+01
1.855800034850478914e+04	1.235340347451674603e+02	-1.204888894853814639e-05	-4.259148837884740146e+01
1.855802249136192040e+04	1.233671774385460651e+02	-1.207340717528428604e-05	-4.258933312525397241e+01
1.855804463421905166e+04	1.231978326979682379e+02	-1.209836252982053521e-05	-4.258718059805197242e+01
1.855806677707618292e+04	1.230260077780833825e+02	-1.212375763573756286e-05	-4.258503078607026282e+01
1.855808891993331417e+04	1.228517112843930903e+02	-1.214959498395163539e-05	-4.258288367819719866e+01
1.855811141993330239e+04	1.226720822305256320e+02	-1.217630447253115818e-05	-4.258070469805233671e+01
1.855813356279043364e+04	1.224928348774151061e+02	-1.220304038592570638e-05	-4.257856300846715669e+01
1.855815570564756490e+04	1.223111509602827880e+02	-1.223022509382799810e-05	-4.257642398983325194e+01
1.855817784850469616e+04	1.221270452138639087e+02	-1.225786042032098989e-05	-4.257428763127445848e+01
1.855820034850468437e+04	1.219375060450306734e+02	-1.228640475316528365e-05	-4.257211952895641360e+01
1.855822249136181563e+04	1.217485685641885169e+02	-1.231495341818036047e-05	-4.256998850061846440e+01
1.855824463421894689e+04	1.215572627067851528e+02	-1.234395716180216119e-05	-4.256786009990001673e+01
1.855826677707607814e+04	1.213636088614508850e+02	-1.237341715233634529e-05	-4.256573431615485248e+01
1.855828891993320940e+04	1.211676285064138341e+02	-1.240333443308188455e-05	-4.256361113879305691e+01
1.855831141993319761e+04	1.209661271318509108e+02	-1.243420363461260869e-05	-4.256145637556731032e+01
1.855833356279032887e+04	1.207655249965859383e+02	-1.246504566553978872e-05	-4.255933842104044373e+01
1.855835570564746013e+04	1.205626657217677291e+02	-1.249634764903095360e-05	-4.255722304129471212e+01
1.855837784850459138e+04	1.203575730429465409e+02	-1.252811041881524280e-05	-4.255511022596336090e+01
1.855840034850457960e+04	1.201469090554550263e+02	-1.256085838638688644e-05	-4.255296594913635033e+01
1.855842249136171085e+04	1.199373851164246361e+02	-1.259355290636044562e-05	-4.255085827269839882e+01
1.855844463421884211e+04	1.197256977416203654e+02	-1.262671115414382045e-05	-4.254875312973786805e+01
1.855846677707597337e+04	1.195118686020449559e+02	-1.266033440174473286e-05	-4.254665051010603349e+01
1.855848891993310463e+04	1.192959181019878798e+02	-1.269442415130155051e-05	-4.254455040370762475e+01
1.855851141993309284e+04	1.190743309588857670e+02	-1.272954342248741327e-05	-4.254241898864830773e+01
1.855853356279022410e+04	1.188541588653004766e+02	-1.276457946578112625e-05	-4.254032391877471042e+01
1.855855570564735535e+04	1.186319162477882969e+02	-1.280008845565581590e-05	-4.253823133200675244e+01
1.855857784850448661e+04	1.184076154496620177e+02	-1.283607333604637639e-05	-4.253614121846082696e+01
1.855860034850447482e+04	1.181775985820201242e+02	-1.287312961806054095e-05	-4.253401991666112281e+01
1.855862249136160608e+04	1.179491745572218377e+02	-1.291008493367015017e-05	-4.253193475961043646e+01
1.855864463421873734e+04	1.177187123413316954e+02	-1.294752815494812080e-05	-4.252985204628497229e+01
1.855866677707586859e+04	1.174862121320710884e+02	-1.298546445735788724e-05	-4.252777176700787010e+01
1.855868891993299985e+04	1.172516706373695001e+02	-1.302389967808673007e-05	-4.252569391215315164e+01
1.855871141993298806e+04	1.170112481489340013e+02	-1.306347260760733427e-05	-4.252358501704247118e+01
1.855873356279011568e+04	1.167725663359370998e+02	-1.310293432847421093e-05	-4.252151202107342698e+01
1.855875570564724694e+04	1.165318110658710111e+02	-1.314291691546763719e-05	-4.251944142079763367e+01
1.855877784850437820e+04	1.162889641056803214e+02	-1.318342917254979575e-05	-4.251737320678984133e+01
1.855880034850436641e+04	1.160400350137398107e+02	-1.322514729154789854e-05	-4.251527406914687646e+01
1.855882249136149767e+04	1.157929001985718855e+02	-1.326675743133637376e-05	-4.251321063770669895e+01
1.855884463421862893e+04	1.155435961041009705e+02	-1.330892862354471241e-05	-4.251114956440426340e+01
1.855886677707576018e+04	1.152920898161950305e+02	-1.335167288892846533e-05	-4.250909084001055760e+01
1.855888891993289144e+04	1.150383450819228841e+02	-1.339500304594292598e-05	-4.250703445534481517e+01
1.855891141993287965e+04	1.147781742142704502e+02	-1.343964623137506929e-05	-4.250494729041788844e+01
1.855893356279001091e+04	1.145197937036325300e+02	-1.348419977073597953e-05	-4.250289559522640559e+01
1.855895570564714217e+04	1.142590473315421349e+02	-1.352938253620820554e-05	-4.250084621236128157e+01
1.855897784850427342e+04	1.139958877276721125e+02	-1.357521036407549855e-05	-4.249879913283238864e+01
1.855900034850426164e+04	1.137259607774270904e+02	-1.362245511311586366e-05	-4.249672138604350380e+01
1.855902249136139289e+04	1.134577837418458586e+02	-1.366963434061464015e-05	-4.249467892319375295e+01
1.855904463421852415e+04	1.131870395277458101e+02	-1.371751034139852952e-05	-4.249263873684717652e+01
1.855906677707565541e+04	1.129136745943959710e+02	-1.376610142499697163e-05	-4.249060081819992973e+01
1.855908891993278667e+04	1.126376347732411460e+02	-1.381542640039975969e-05	-4.248856515849395521e+01
1.855911141993277488e+04	1.123543467077739848e+02	-1.386631851471454317e-05	-4.248649897048155566e+01
1.855913356278990614e+04	1.120727486625750942e+02	-1.391718206156686618e-05	-4.248446783864903864e+01
1.855915570564703739e+04	1.117883124143760512e+02	-1.396883871446445572e-05	-4.248243893961669926e+01
1.855917784850416865e+04	1.115009851150421127e+02	-1.402130874220099125e-05	-4.248041226480754773e+01
1.855920034850415686e+04	1.112060090192971415e+02	-1.407547932241227837e-05	-4.247835517123250071e+01
1.855922249136128812e+04	1.109126978285995477e+02	-1.412965168972326448e-05	-4.247633295484701677e+01
1.855924463421841938e+04	1.106163452846572000e+02	-1.418469968008055496e-05	-4.247431293708358169e+01
1.855926677707555064e+04	1.103169056943710444e+02	-1.424064411623904203e-05	-4.247229510954221610e+01
1.855928891993268189e+04	1.100143359329491375e+02	-1.429750582510913783e-05	-4.247027946386633346e+01
1.855931141993267011e+04	1.097036382247900974e+02	-1.435624564477261756e-05	-4.246823353415143742e+01
1.855933356278980136e+04	1.093946382904896808e+02	-1.441501979081914021e-05	-4.246622226216572216e+01
1.855935570564693262e+04	1.090823962000335428e+02	-1.447477358027978364e-05	-4.246421314710165973e+01
1.855937784850406388e+04	1.087668815030064167e+02	-1.453552740797553547e-05	-4.246220618077470021e+01
1.855940034850405209e+04	1.084428979953173808e+02	-1.459830629741993599e-05	-4.246016903664030195e+01
1.855942249136118335e+04	1.081207073964242653e+02	-1.466113750854474660e-05	-4.245816637773157254e+01
1.855944463421831460e+04	1.077951744037906678e+02	-1.472502897338935522e-05	-4.245616584312912778e+01
1.855946677707544586e+04	1.074662834015436914e+02	-1.479000015879733308e-05	-4.245416742481663164e+01
1.855948891993257712e+04	1.071340225321938533e+02	-1.485607026535427997e-05	-4.245217111481893113e+01
1.855951141993256533e+04	1.067929424083745857e+02	-1.492435116609178691e-05	-4.245014475769897899e+01
1.855953356278969659e+04	1.064538664229607292e+02	-1.499269413271414866e-05	-4.244815267425494909e+01
1.855955570564682785e+04	1.061114069205436152e+02	-1.506219233589190051e-05	-4.244616267531950626e+01
1.855957784850395910e+04	1.057655663234949088e+02	-1.513286395571398207e-05	-4.244417475308102183e+01
1.855960034850394732e+04	1.054106901112255628e+02	-1.520589590419642010e-05	-4.244215688678730203e+01
1.855962249136107857e+04	1.050580529381761323e+02	-1.527898773556950497e-05	-4.244017312785017992e+01
1.855964463421820983e+04	1.047020604611663543e+02	-1.535330667347270536e-05	-4.243819142229131103e+01
1.855966677707534109e+04	1.043427266058871368e+02	-1.542887025941657800e-05	-4.243621176245897431e+01
1.855968891993247234e+04	1.039800675500539171e+02	-1.550569597876618372e-05	-4.243423414074051436e+01
1.855971141993246056e+04	1.036081717756135987e+02	-1.558507165732113314e-05	-4.243222670178649736e+01
1.855973356278959182e+04	1.032388656213780962e+02	-1.566449519895514935e-05	-4.243025316618171416e+01
1.855975570564672307e+04	1.028662938597907868e+02	-1.574523380675793997e-05	-4.242828164596580365e+01
1.855977784850385433e+04	1.024904788550537091e+02	-1.582730529051918587e-05	-4.242631213368163401e+01
1.855980034850384254e+04	1.021053040551689151e+02	-1.591208438698819055e-05	-4.242431290420206125e+01
1.855982249136097380e+04	1.017230212524034414e+02	-1.599689828826710150e-05	-4.242234741764926298e+01
1.855984463421810506e+04	1.013375664134195659e+02	-1.608310046185954287e-05	-4.242038391676664588e+01
1.855986677707523631e+04	1.009489634697478522e+02	-1.617071005142878943e-05	-4.241842239424894956e+01
1.855988891993236757e+04	1.005572360895504573e+02	-1.625974669688666258e-05	-4.241646284282829527e+01
