# time(us)	tip(nm)	Fts(nN)	Xb(nm)
1.855557784850606549e+04	-5.926491292290539548e+01	-1.939397597291191655e+00	-5.947961612086172778e+01
1.855560034850605371e+04	-5.925702275957892340e+01	-1.902700874611458648e+00	-5.947570428084905814e+01
1.855562249136318496e+04	-5.924928793912619085e+01	-1.867774400536397428e+00	-5.947186425797598019e+01
1.855564463422031622e+04	-5.924158242783874329e+01	-1.833970814997482712e+00	-5.946803380112377369e+01
1.855566677707744748e+04	-5.923390515622653396e+01	-1.801233883550888093e+00	-5.946421283127392599e+01
1.855568891993457873e+04	-5.922625454926669875e+01	-1.769506670122509950e+00	-5.946040127055412228e+01
1.855571141993456695e+04	-5.921850573312261901e+01	-1.738243096009529420e+00	-5.945653779200819855e+01
1.855573356279169820e+04	-5.921090213931471880e+01	-1.708377835038808579e+00	-5.945274496908812267e+01
1.855575570564882946e+04	-5.920331761367021528e+01	-1.679350619586705395e+00	-5.944896132713349601e+01
1.855577784850596072e+04	-5.919574879285910640e+01	-1.651105880241759527e+00	-5.944518679264616168e+01
1.855580034850594529e+04	-5.918807014635289931e+01	-1.623151191473075405e+00	-5.944136063294374850e+01
1.855582249136307655e+04	-5.918052134582261914e+01	-1.596320642960793457e+00	-5.943760424101018458e+01
1.855584463422020781e+04	-5.917297611127487755e+01	-1.570114084997912718e+00	-5.943385674105100236e+01
1.855586677707733907e+04	-5.916542991374701899e+01	-1.544483041391255806e+00	-5.943011806360404847e+01
1.855588891993447032e+04	-5.915787805858121118e+01	-1.519381522408353113e+00	-5.942638814016343218e+01
1.855591141993445854e+04	-5.915019365420287301e+01	-1.494372997411097970e+00	-5.942260695402317339e+01
1.855593356279158979e+04	-5.914261572180719639e+01	-1.470210526385300920e+00	-5.941889447529930379e+01
1.855595570564872105e+04	-5.913501752204685147e+01	-1.446456151978616322e+00	-5.941519054956732759e+01
1.855597784850585231e+04	-5.912739424832083301e+01	-1.423075925278543652e+00	-5.941149511198115363e+01
1.855600034850584052e+04	-5.911961749919180420e+01	-1.399670345959978190e+00	-5.940774869928846158e+01
1.855602249136297178e+04	-5.911192956363736073e+01	-1.376954923516825025e+00	-5.940407018125524985e+01
1.855604463422010303e+04	-5.910420293999261077e+01	-1.354531766035805163e+00	-5.940039996097645769e+01
1.855606677707723429e+04	-5.909643357747433612e+01	-1.332380628023760449e+00	-5.939673797699560964e+01
1.855608891993436555e+04	-5.908861773327912914e+01	-1.310484657225653438e+00	-5.939308416866130358e+01
1.855611141993435376e+04	-5.908062472103392082e+01	-1.288482966976508104e+00	-5.938937974079836835e+01
1.855613356279148502e+04	-5.907270524086876406e+01	-1.267063559209921753e+00	-5.938574223441485600e+01
1.855615570564861628e+04	-5.906473024511269898e+01	-1.245868021838803408e+00	-5.938211272547092534e+01
1.855617784850574753e+04	-5.905669759137513353e+01	-1.224891943987613141e+00	-5.937849115640089082e+01
1.855620034850573575e+04	-5.904847459163680412e+01	-1.203800526915123070e+00	-5.937481924940230726e+01
1.855622249136286700e+04	-5.904032108149917235e+01	-1.183264000589792309e+00	-5.937121351608825393e+01
1.855624463421999826e+04	-5.903210631545875486e+01	-1.162948642618298001e+00	-5.936761555341057317e+01
1.855626677707712952e+04	-5.902383007991931407e+01	-1.142859143565579272e+00	-5.936402530666951094e+01
1.855628891993426078e+04	-5.901549264864403455e+01	-1.123001787511953564e+00	-5.936044272184686577e+01
1.855631141993424899e+04	-5.900695883466074321e+01	-1.103069763465837072e+00	-5.935681014674459988e+01
1.855633356279138025e+04	-5.899850078755776650e+01	-1.083704569137028395e+00	-5.935324284781069082e+01
1.855635570564851150e+04	-5.898998519850049149e+01	-1.064597227267836788e+00	-5.934968305187513948e+01
1.855637784850564276e+04	-5.898141414667342985e+01	-1.045757557806543225e+00	-5.934613070753675146e+01
1.855640034850563097e+04	-5.897265057827775792e+01	-1.026898523038927147e+00	-5.934252864787833204e+01
1.855642249136276223e+04	-5.896397555316008265e+01	-1.008628926209332644e+00	-5.933899117316217797e+01
1.855644463421989349e+04	-5.895525350986758895e+01	-9.906568407904869922e-01	-5.933546099873841939e+01
1.855646677707702474e+04	-5.894648783357553157e+01	-9.729914739092314635e-01	-5.933193807564184397e+01
1.855648891993415600e+04	-5.893768212450089550e+01	-9.556413664115669393e-01	-5.932842235548738330e+01
1.855651141993414421e+04	-5.892869725943877768e+01	-9.383422879506091441e-01	-5.932485725907388741e+01
1.855653356279127547e+04	-5.891982240347290656e+01	-9.216502539859994236e-01	-5.932135591617782211e+01
1.855655570564840673e+04	-5.891091916021344588e+01	-9.052937192050112269e-01	-5.931786163370097853e+01
1.855657784850553799e+04	-5.890199147329337848e+01	-8.892771948093822765e-01	-5.931437436548885245e+01
1.855660034850552620e+04	-5.889289876363955045e+01	-8.733540054079472759e-01	-5.931083798891055636e+01
1.855662249136265746e+04	-5.888393353107134232e+01	-8.580316997867125650e-01	-5.930736472418490735e+01
1.855664463421978871e+04	-5.887495523716510348e+01	-8.430554884788219461e-01	-5.930389833769897479e+01
1.855666677707691997e+04	-5.886596731227930235e+01	-8.284248300213825633e-01	-5.930043878537901492e+01
1.855668891993405123e+04	-5.885697293457983648e+01	-8.141379243211751549e-01	-5.929698602364756255e+01
1.855671141993403944e+04	-5.884782984301250508e+01	-7.999695790327304712e-01	-5.929348448359800727e+01
1.855673356279117070e+04	-5.883883087115293620e+01	-7.863653162244077510e-01	-5.929004528205130953e+01
1.855675570564830196e+04	-5.882983307828066444e+01	-7.730921699379947887e-01	-5.928661274257958524e+01
1.855677784850543321e+04	-5.882083822646390558e+01	-7.601437629119116579e-01	-5.928318682351582680e+01
1.855680034850542143e+04	-5.881170267839774368e+01	-7.473115854894772925e-01	-5.927971238669467624e+01
1.855682249136255268e+04	-5.880271733992974958e+01	-7.349946746095485928e-01	-5.927629969038913060e+01
1.855684463421968394e+04	-5.879373757143690682e+01	-7.229777962291589199e-01	-5.927289349154951026e+01
1.855686677707681520e+04	-5.878476330421366214e+01	-7.112512566267672476e-01	-5.926949375029492018e+01
1.855688891993394645e+04	-5.877579399133151128e+01	-6.998047802214782953e-01	-5.926610042717104676e+01
1.855691141993393467e+04	-5.876668403253984962e+01	-6.884494819879130034e-01	-5.926265890707444584e+01
1.855693356279106592e+04	-5.875772112125888924e+01	-6.775345667087355750e-01	-5.925927840547209513e+01
1.855695570564819718e+04	-5.874875868115296385e+01	-6.668662484789320555e-01	-5.925590420551480975e+01
1.855697784850532844e+04	-5.873979433729812172e+01	-6.564329610627313016e-01	-5.925253626939276330e+01
1.855700034850531665e+04	-5.873068059512067407e+01	-6.460601665950127526e-01	-5.924912038938332159e+01
1.855702249136244791e+04	-5.872170358593399442e+01	-6.360654121391926541e-01	-5.924576496859539532e+01
1.855704463421957917e+04	-5.871271520531846022e+01	-6.262708235146471347e-01	-5.924241569995809442e+01
1.855706677707671042e+04	-5.870371167297248149e+01	-6.166651689659886637e-01	-5.923907254720247550e+01
1.855708891993384168e+04	-5.869468896122010904e+01	-6.072375290688671878e-01	-5.923573547442792631e+01
1.855711141993382989e+04	-5.868549672260850514e+01	-5.978293370651904803e-01	-5.923235076917081443e+01
1.855713356279096115e+04	-5.867642234010413915e+01	-5.887290768473644187e-01	-5.922902584673940396e+01
1.855715570564809241e+04	-5.866731563635966751e+01	-5.797765779601330438e-01	-5.922570689818226697e+01
1.855717784850522366e+04	-5.865817210354673961e+01	-5.709629261446153015e-01	-5.922239388902161750e+01
1.855720034850521188e+04	-5.864883874559403409e+01	-5.621408348846608227e-01	-5.921903349293916108e+01
1.855722249136234313e+04	-5.863960738442258247e+01	-5.535827033378564188e-01	-5.921573235492054010e+01
1.855724463421947439e+04	-5.863032593245802815e+01	-5.451406361140251899e-01	-5.921243705434991256e+01
1.855726677707660201e+04	-5.862099028978374804e+01	-5.368085557146470288e-01	-5.920914755808565388e+01
1.855728891993373327e+04	-5.861159659389338827e+01	-5.285811538795109898e-01	-5.920586383330613955e+01
1.855731141993372148e+04	-5.860198824136708140e+01	-5.203236118425867973e-01	-5.920253302361707881e+01
1.855733356279085274e+04	-5.859246697860153574e+01	-5.122942684870144259e-01	-5.919926083638092251e+01
1.855735570564798400e+04	-5.858287794347673128e+01	-5.043582663094944296e-01	-5.919599432352492840e+01
1.855737784850511525e+04	-5.857321869947951853e+01	-4.965133536965458672e-01	-5.919273345346481818e+01
1.855740034850510347e+04	-5.856332970425509643e+01	-4.886336282831413858e-01	-5.918942573655562711e+01
1.855742249136223472e+04	-5.855352337791079975e+01	-4.809683596567891906e-01	-5.918617614827228834e+01
1.855744463421936598e+04	-5.854364235494861646e+01	-4.733915151764400697e-01	-5.918293210930114867e+01
1.855746677707649724e+04	-5.853368617735292645e+01	-4.659034297847757800e-01	-5.917969358922284329e+01
1.855748891993362849e+04	-5.852365492608350905e+01	-4.585049561460663448e-01	-5.917646055789732173e+01
1.855751141993361671e+04	-5.851338562816855671e+01	-4.510802947177547928e-01	-5.917318097241014385e+01
1.855753356279074796e+04	-5.850320548578798707e+01	-4.438668793947944669e-01	-5.916995891659612994e+01
1.855755570564787922e+04	-5.849295381341187294e+01	-4.367481592690118375e-01	-5.916674226028048622e+01
1.855757784850501048e+04	-5.848263286052800680e+01	-4.297264344444048367e-01	-5.916353097440521935e+01
1.855760034850499869e+04	-5.847207731913371731e+01	-4.226933813955450203e-01	-5.916027336500918921e+01
1.855762249136212995e+04	-5.846162557979924657e+01	-4.158749342198579391e-01	-5.915707281933870121e+01
1.855764463421926121e+04	-5.845111433347787511e+01	-4.091613423961319995e-01	-5.915387755802424152e+01
1.855766677707639246e+04	-5.844054771414140248e+01	-4.025553072581443126e-01	-5.915068755302894488e+01
1.855768891993352372e+04	-5.842993023966131716e+01	-3.960594802110984913e-01	-5.914750277656125377e+01
1.855771141993351193e+04	-5.841909442827775933e+01	-3.895743950973189484e-01	-5.914427196006499798e+01
1.855773356279064319e+04	-5.840838949809132430e+01	-3.833083576924135594e-01	-5.914109764146579096e+01
1.855775570564777445e+04	-5.839764920898733891e+01	-3.771597171131571558e-01	-5.913792846902272515e+01
1.855777784850490571e+04	-5.838687915130645933e+01	-3.711304461236305530e-01	-5.913476441589556032e+01
1.855780034850489392e+04	-5.837591078787598775e+01	-3.651279623437505006e-01	-5.913155454608538975e+01
1.855782249136202518e+04	-5.836509820588769770e+01	-3.593442596452136595e-01	-5.912840073348125713e+01
1.855784463421915643e+04	-5.835427331257188399e+01	-3.536841874828776655e-01	-5.912525196061242383e+01
1.855786677707628769e+04	-5.834344190508036121e+01	-3.481485287236170123e-01	-5.912210820153879354e+01
1.855788891993341895e+04	-5.833260969187365674e+01	-3.427377310515201114e-01	-5.911896943053673681e+01
1.855791141993340716e+04	-5.832160767124118195e+01	-3.373676694664509701e-01	-5.911578511732558638e+01
1.855793356279053842e+04	-5.831079055529236399e+01	-3.322085817789430795e-01	-5.911265632557511651e+01
1.855795570564766967e+04	-5.829998877800952783e+01	-3.271736433394644705e-01	-5.910953244559340902e+01
1.855797784850480093e+04	-5.828920717157859599e+01	-3.222619453382460364e-01	-5.910641345249803180e+01
1.855800034850478914e+04	-5.827827696192601792e+01	-3.173959975506289166e-01	-5.910324913340036801e+01
1.855802249136192040e+04	-5.826754932126050335e+01	-3.127287159435085950e-01	-5.910013991806659561e+01
1.855804463421905166e+04	-5.825685426199746786e+01	-3.081800531306752577e-01	-5.909703551578692071e+01
1.855806677707618292e+04	-5.824619507114682193e+01	-3.037479081266584724e-01	-5.909393590247683647e+01
1.855808891993331417e+04	-5.823557458171862322e+01	-2.994299296985486469e-01	-5.909084105424392419e+01
1.855811141993330239e+04	-5.822482486781490962e+01	-2.951565930346305988e-01	-5.908770114567641230e+01
1.855813356279043364e+04	-5.821428909293242526e+01	-2.910607371531144794e-01	-5.908461583258065275e+01
1.855815570564756490e+04	-5.820379767743734334e+01	-2.870706731498315900e-01	-5.908153521363966121e+01
1.855817784850469616e+04	-5.819335152496945796e+01	-2.831832814296257883e-01	-5.907845926570896467e+01
1.855820034850468437e+04	-5.818278368809652790e+01	-2.793350145031764931e-01	-5.907533846669274169e+01
1.855822249136181563e+04	-5.817242961372802768e+01	-2.756446440090950523e-01	-5.907227186648393769e+01
1.855824463421894689e+04	-5.816212070302018589e+01	-2.720468669121997030e-01	-5.906920986856233924e+01
1.855826677707607814e+04	-5.815185605117204659e+01	-2.685382065202045476e-01	-5.906615245049450635e+01
1.855828891993320940e+04	-5.814163436505694449e+01	-2.651151615511756487e-01	-5.906309959001877274e+01
1.855831141993319761e+04	-5.813129012679128493e+01	-2.617209985286427232e-01	-5.906000213555663692e+01
1.855833356279032887e+04	-5.812114973524627715e+01	-2.584599448845930070e-01	-5.905695839677672865e+01
1.855835570564746013e+04	-5.811104643187938734e+01	-2.552740430933790883e-01	-5.905391914946310550e+01
1.855837784850459138e+04	-5.810097775650687879e+01	-2.521599327323389428e-01	-5.905088437202260110e+01
1.855840034850457960e+04	-5.809077943913540309e+01	-2.490657643170184343e-01	-5.904780520308520408e+01
1.855842249136171085e+04	-5.808077243917055910e+01	-2.460865612324436014e-01	-5.904477937248814357e+01
1.855844463421884211e+04	-5.807079179762752830e+01	-2.431696315833778710e-01	-5.904175794760701024e+01
1.855846677707597337e+04	-5.806083466754255795e+01	-2.403120828085434368e-01	-5.903874090748583825e+01
1.855848891993310463e+04	-5.805089823912966551e+01	-2.375111781614156481e-01	-5.903572823132269320e+01
1.855851141993309284e+04	-5.804081995094627189e+01	-2.347204747287590376e-01	-5.903267141244882055e+01
1.855853356279022410e+04	-5.803091713825697440e+01	-2.320261444602781942e-01	-5.902966747195885233e+01
1.855855570564735535e+04	-5.802102730948254106e+01	-2.293812590715431365e-01	-5.902666783360067626e+01
1.855857784850448661e+04	-5.801114832444702785e+01	-2.267838081523211313e-01	-5.902367247717333498e+01
1.855860034850447482e+04	-5.800111919978104424e+01	-2.241911828996336342e-01	-5.902063317397514908e+01
1.855862249136160608e+04	-5.799125677450528116e+01	-2.216840509290148031e-01	-5.901764638964277765e+01
1.855864463421873734e+04	-5.798140062967611641e+01	-2.192194784141935637e-01	-5.901466382718631820e+01
1.855866677707586859e+04	-5.797155000266025837e+01	-2.167962415963977374e-01	-5.901168546697889639e+01
1.855868891993299985e+04	-5.796170455406794275e+01	-2.144133063864390176e-01	-5.900871128953250633e+01
1.855871141993298806e+04	-5.795170572304455447e+01	-2.120323432406039377e-01	-5.900569340605586888e+01
1.855873356279011568e+04	-5.794187151125711921e+01	-2.097282551154487917e-01	-5.900272760290102525e+01
1.855875570564724694e+04	-5.793204420985524905e+01	-2.074624257040585118e-01	-5.899976592455531232e+01
1.855877784850437820e+04	-5.792222534125464506e+01	-2.052345022391487417e-01	-5.899680835207356466e+01
1.855880034850436641e+04	-5.791225880004324722e+01	-2.030092560996231144e-01	-5.899380726316919521e+01
1.855882249136149767e+04	-5.790246348477160154e+01	-2.008572480183609954e-01	-5.899085791157151704e+01
1.855884463421862893e+04	-5.789268402963763549e+01	-1.987428874682498903e-01	-5.898791260948799220e+01
1.855886677707576018e+04	-5.788292379136331789e+01	-1.966663083977611692e-01	-5.898497133849340202e+01
1.855888891993289144e+04	-5.787318653469277763e+01	-1.946277289950332223e-01	-5.898203408028840755e+01
1.855891141993287965e+04	-5.786332003350832309e+01	-1.925954889636758427e-01	-5.897905353863007605e+01
1.855893356279001091e+04	-5.785364205787621472e+01	-1.906344489513436546e-01	-5.897612431559481649e+01
1.855895570564714217e+04	-5.784400055782229089e+01	-1.887124200440338517e-01	-5.897319905090608927e+01
1.855897784850427342e+04	-5.783440058335137479e+01	-1.868298033485620291e-01	-5.897027772675748736e+01
1.855900034850426164e+04	-5.782469372466740509e+01	-1.849576141091628101e-01	-5.896731330265190962e+01
1.855902249136139289e+04	-5.781519363152408886e+01	-1.831556956194240193e-01	-5.896439986948672640e+01
1.855904463421852415e+04	-5.780575136539816583e+01	-1.813943924190905554e-01	-5.896149032387473454e+01
1.855906677707565541e+04	-5.779637251003625664e+01	-1.796740573210756364e-01	-5.895858464848245717e+01
1.855908891993278667e+04	-5.778706264693352068e+01	-1.779950006225851367e-01	-5.895568282609123401e+01
1.855911141993277488e+04	-5.777767898315728701e+01	-1.763314098436664923e-01	-5.895273812921830370e+01
1.855913356278990614e+04	-5.776852489506759269e+01	-1.747362953156855192e-01	-5.894984402308333671e+01
1.855915570564703739e+04	-5.775945605951888240e+01	-1.731830401871827796e-01	-5.894695371869951828e+01
1.855917784850416865e+04	-5.775047749567834643e+01	-1.716716928317534030e-01	-5.894406719929780536e+01
1.855920034850415686e+04	-5.774145147205907591e+01	-1.701788608730075425e-01	-5.894113798302190332e+01
1.855922249136128812e+04	-5.773266901530125494e+01	-1.687518130738433209e-01	-5.893825904409063554e+01
1.855924463421841938e+04	-5.772399013670486312e+01	-1.673663045029778196e-01	-5.893538384022118493e+01
1.855926677707555064e+04	-5.771541849362746035e+01	-1.660220314159537303e-01	-5.893251235507682395e+01
1.855928891993268189e+04	-5.770695730480677099e+01	-1.647185969872458078e-01	-5.892964457242579357e+01
1.855931141993267011e+04	-5.769847561569668670e+01	-1.634354665271879892e-01	-5.892673431115892413e+01
1.855933356278980136e+04	-5.769024496776520294e+01	-1.622127837847857357e-01	-5.892387394428298109e+01
1.855935570564693262e+04	-5.768213154398287656e+01	-1.610291842233855519e-01	-5.892101723156966386e+01
1.855937784850406388e+04	-5.767413654919968025e+01	-1.598839071996078498e-01	-5.891816415719918609e+01
1.855940034850405209e+04	-5.766613459939149067e+01	-1.587585430787213092e-01	-5.891526877615262947e+01
1.855942249136118335e+04	-5.765837985395341292e+01	-1.576878817184859394e-01	-5.891242298945848432e+01
1.855944463421831460e+04	-5.765074392674356574e+01	-1.566527627553321589e-01	-5.890958079399582203e+01
1.855946677707544586e+04	-5.764322588621993759e+01	-1.556521210220694063e-01	-5.890674217434164461e+01
1.855948891993257712e+04	-5.763582429539871299e+01	-1.546848304386086725e-01	-5.890390711516953104e+01
1.855951141993256533e+04	-5.762842062697873047e+01	-1.537348855427194405e-01	-5.890102996063770036e+01
1.855953356278969659e+04	-5.762124750710301413e+01	-1.528312005392812589e-01	-5.889820203364599394e+01
1.855955570564682785e+04	-5.761418369535589079e+01	-1.519571763863925007e-01	-5.889537762148567879e+01
1.855957784850395910e+04	-5.760722600351237332e+01	-1.511115192453152400e-01	-5.889255670920935160e+01
1.855960034850394732e+04	-5.760026115523335477e+01	-1.502799257367316565e-01	-5.888969386806375894e+01
1.855962249136107857e+04	-5.759350637686418395e+01	-1.494874516084958305e-01	-5.888687996693277427e+01
1.855964463421820983e+04	-5.758684622141074527e+01	-1.487193538463312814e-01	-5.888406952115780513e+01
1.855966677707534109e+04	-5.758027641774928185e+01	-1.479743106234036876e-01	-5.888126251615702955e+01
1.855968891993247234e+04	-5.757379255419463249e+01	-1.472510160613856312e-01	-5.887845893743774184e+01
1.855971141993246056e+04	-5.756728751130323474e+01	-1.465370141625060851e-01	-5.887561363449406571e+01
1.855973356278959182e+04	-5.756096321090721801e+01	-1.458537081141596803e-01	-5.887281691989426946e+01
1.855975570564672307e+04	-5.755471125499481388e+01	-1.451883990935741442e-01	-5.887002358839557559e+01
1.855977784850385433e+04	-5.754852722720386282e+01	-1.445399338885350327e-01	-5.886723362585510699e+01
1.855980034850384254e+04	-5.754230863094045390e+01	-1.438971358769035591e-01	-5.886440210034592724e+01
1.855982249136097380e+04	-5.753624873803268258e+01	-1.432793687663376225e-01	-5.886161888740598158e+01
1.855984463421810506e+04	-5.753024449111697436e+01	-1.426753493439398279e-01	-5.885883900128151680e+01
