# time(us)	tip(nm)	Fts(nN)	Xb(nm)
1.855557784850606549e+04	3.623279934686809156e+02	-2.121650303770859470e-06	-3.386072410303894031e+01
1.855560034850605371e+04	3.634069569036846019e+02	-2.110170855054625558e-06	-3.385835151207655258e+01
1.855562249136318496e+04	3.644633495679692601e+02	-2.099021640064859303e-06	-3.385602176777074135e+01
1.855564463422031622e+04	3.655143504877848954e+02	-2.088016853051999563e-06	-3.385369714063816104e+01
1.855566677707744748e+04	3.665599580116893890e+02	-2.077154260224313260e-06	-3.385137760322457723e+01
1.855568891993457873e+04	3.676001597215653760e+02	-2.066431784478571413e-06	-3.384906312828690034e+01
1.855571141993456695e+04	3.686515776469831849e+02	-2.055677908294030524e-06	-3.384671648088183815e+01
1.855573356279169820e+04	3.696807990557927610e+02	-2.045232221073740797e-06	-3.384441213056388875e+01
1.855575570564882946e+04	3.707045125754846140e+02	-2.034921276260785228e-06	-3.384211276180629113e+01
1.855577784850596072e+04	3.717226637818108088e+02	-2.024743562285366791e-06	-3.383981834818872869e+01
1.855580034850594529e+04	3.727514732849120946e+02	-2.014536730598133568e-06	-3.383749197656403140e+01
1.855582249136307655e+04	3.737582065637957385e+02	-2.004623509909729780e-06	-3.383520747362538827e+01
1.855584463422020781e+04	3.747591583233882488e+02	-1.994839647538642099e-06	-3.383292784733448144e+01
1.855586677707733907e+04	3.757542400297290897e+02	-1.985184052197690952e-06	-3.383065307205566796e+01
1.855588891993447032e+04	3.767433566821279101e+02	-1.975655709989543007e-06	-3.382838312234311218e+01
1.855591141993445854e+04	3.777422131719000618e+02	-1.966103057177286201e-06	-3.382608147746881144e+01
1.855593356279158979e+04	3.787189933713107166e+02	-1.956828447187020227e-06	-3.382382118011461358e+01
1.855595570564872105e+04	3.796894929748218601e+02	-1.947678384170198084e-06	-3.382156563270599747e+01
1.855597784850585231e+04	3.806536013741133502e+02	-1.938652048870573558e-06	-3.381931481053771194e+01
1.855600034850584052e+04	3.816265982109440529e+02	-1.929606041707819182e-06	-3.381703249970443181e+01
1.855602249136297178e+04	3.825774815476407866e+02	-1.920826736929230183e-06	-3.381479112984266777e+01
1.855604463422010303e+04	3.835216381031938226e+02	-1.912168766984418806e-06	-3.381255441178444698e+01
1.855606677707723429e+04	3.844589597797145757e+02	-1.903631330200195827e-06	-3.381032232153255990e+01
1.855608891993436555e+04	3.853893418931676820e+02	-1.895213605300176607e-06	-3.380809483526109460e+01
1.855611141993435376e+04	3.863275186069083702e+02	-1.886781859888113441e-06	-3.380583611339636008e+01
1.855613356279148502e+04	3.872436104882690984e+02	-1.878602872191750408e-06	-3.380361783759045835e+01
1.855615570564861628e+04	3.881524778857877891e+02	-1.870540922786099438e-06	-3.380140409492283027e+01
1.855617784850574753e+04	3.890540395543643513e+02	-1.862595038871447788e-06	-3.379919486223771941e+01
1.855620034850573575e+04	3.899625835700064727e+02	-1.854638829483925940e-06	-3.379695459277036207e+01
1.855622249136286700e+04	3.908492015495472174e+02	-1.846923779381497307e-06	-3.379475438304724833e+01
1.855624463421999826e+04	3.917283187348892852e+02	-1.839321538798502303e-06	-3.379255861444256226e+01
1.855626677707712952e+04	3.925998886929468199e+02	-1.831830914013729656e-06	-3.379036726444247307e+01
1.855628891993426078e+04	3.934638746072845947e+02	-1.824450653371486305e-06	-3.378818031068895777e+01
1.855631141993424899e+04	3.943339994274728042e+02	-1.817063056938275298e-06	-3.378596256380113516e+01
1.855633356279138025e+04	3.951826226709480352e+02	-1.809901269038575652e-06	-3.378378440609447608e+01
1.855635570564851150e+04	3.960236097453415596e+02	-1.802845733769165956e-06	-3.378161057812597790e+01
1.855637784850564276e+04	3.968569624813679866e+02	-1.795894986151054195e-06	-3.377944105814681564e+01
1.855640034850563097e+04	3.976959475391470278e+02	-1.788937912422800333e-06	-3.377724093644030035e+01
1.855642249136276223e+04	3.985139501185564654e+02	-1.782193804218391386e-06	-3.377508003639725587e+01
1.855644463421989349e+04	3.993243762091075268e+02	-1.775549823995866569e-06	-3.377292337963542224e+01
1.855646677707702474e+04	4.001272603005156157e+02	-1.769004367538357820e-06	-3.377077094499086485e+01
1.855648891993415600e+04	4.009226432306622314e+02	-1.762555812885825445e-06	-3.376862271144148764e+01
1.855651141993414421e+04	4.017232189878055237e+02	-1.756100827454139617e-06	-3.376644411074122587e+01
1.855653356279127547e+04	4.025036239435606831e+02	-1.749842675582202663e-06	-3.376430428379632076e+01
1.855655570564840673e+04	4.032766798748706378e+02	-1.743676506187597719e-06	-3.376216859538746462e+01
1.855657784850553799e+04	4.040424433482018571e+02	-1.737600707071133634e-06	-3.376003702504910819e+01
1.855660034850552620e+04	4.048131474961538743e+02	-1.731517843647140259e-06	-3.375787527184455428e+01
1.855662249136265746e+04	4.055643841016938040e+02	-1.725619445222254207e-06	-3.375575194239195298e+01
1.855664463421978871e+04	4.063085014103373283e+02	-1.719806730849131778e-06	-3.375363267009657164e+01
1.855666677707691997e+04	4.070455537914072011e+02	-1.714078232769774912e-06	-3.375151743502798496e+01
1.855668891993405123e+04	4.077755921822401888e+02	-1.708432538972037541e-06	-3.374940621738597457e+01
1.855671141993403944e+04	4.085102685518458543e+02	-1.702779214840167122e-06	-3.374726504273372285e+01
1.855673356279117070e+04	4.092263011439457614e+02	-1.697296434532912069e-06	-3.374516186506350124e+01
1.855675570564830196e+04	4.099354416529454852e+02	-1.691892606264094836e-06	-3.374306264587533377e+01
1.855677784850543321e+04	4.106377166394314600e+02	-1.686566607401308296e-06	-3.374096736587933520e+01
1.855680034850542143e+04	4.113443048138864242e+02	-1.681233359674528212e-06	-3.373884230631531267e+01
1.855682249136255268e+04	4.120327839093648663e+02	-1.676061211631294013e-06	-3.373675491009316829e+01
1.855684463421968394e+04	4.127144239241096102e+02	-1.670964036182665783e-06	-3.373467139562973216e+01
1.855686677707681520e+04	4.133892136817780170e+02	-1.665941070987390877e-06	-3.373259174412692829e+01
1.855688891993394645e+04	4.140571312882109396e+02	-1.660991648217399101e-06	-3.373051593690634320e+01
1.855691141993393467e+04	4.147287485255887418e+02	-1.656037137389424498e-06	-3.372841056760025680e+01
1.855693356279106592e+04	4.153826994626067517e+02	-1.651234339514710701e-06	-3.372634245463958536e+01
1.855695570564819718e+04	4.160296450463849283e+02	-1.646503638864690932e-06	-3.372427813033873889e+01
1.855697784850532844e+04	4.166695187509254765e+02	-1.641844739334387089e-06	-3.372221757648934926e+01
1.855700034850531665e+04	4.173123893726086635e+02	-1.637184028022859990e-06	-3.372012763142979708e+01
1.855702249136244791e+04	4.179377591770742697e+02	-1.632669335046521476e-06	-3.371807462440022363e+01
1.855704463421957917e+04	4.185557923042900939e+02	-1.628226054371990396e-06	-3.371602533359243381e+01
1.855706677707671042e+04	4.191663813183753859e+02	-1.623854207778750273e-06	-3.371397974125172681e+01
1.855708891993384168e+04	4.197694101045711932e+02	-1.619553882193799358e-06	-3.371193782973384145e+01
1.855711141993382989e+04	4.203742933390973349e+02	-1.615257607026436614e-06	-3.370986673645573717e+01
1.855713356279096115e+04	4.209616956413850062e+02	-1.611101971412837053e-06	-3.370783219275028841e+01
1.855715570564809241e+04	4.215411436956073317e+02	-1.607018442645318840e-06	-3.370580127731027176e+01
1.855717784850522366e+04	4.221124956737840535e+02	-1.603007296757856197e-06	-3.370377397292590160e+01
1.855720034850521188e+04	4.226846200817434465e+02	-1.599005910976668490e-06	-3.370171765135966524e+01
1.855722249136234313e+04	4.232392040907888600e+02	-1.595141640369583181e-06	-3.369969757543400135e+01
1.855724463421947439e+04	4.237852463993295373e+02	-1.591350717284370956e-06	-3.369768105929477287e+01
1.855726677707660201e+04	4.243225973690688306e+02	-1.587633477733931440e-06	-3.369566808615211784e+01
1.855728891993373327e+04	4.248511084627564287e+02	-1.583990252267283575e-06	-3.369365863931862748e+01
1.855731141993372148e+04	4.253789384642442997e+02	-1.580364406176659514e-06	-3.369162037705378054e+01
1.855733356279085274e+04	4.258891862570594071e+02	-1.576871346124186594e-06	-3.368961798938959618e+01
1.855735570564798400e+04	4.263901649823717435e+02	-1.573453187141361081e-06	-3.368761907831470381e+01
1.855737784850511525e+04	4.268817424236407874e+02	-1.570110163325631365e-06	-3.368562362754459372e+01
1.855740034850510347e+04	4.273714894459643574e+02	-1.566790381849946021e-06	-3.368359951988774270e+01
1.855742249136223472e+04	4.278437393356540497e+02	-1.563599382234566750e-06	-3.368161099642513534e+01
1.855744463421936598e+04	4.283062341088067342e+02	-1.560483958317579723e-06	-3.367962588474292573e+01
1.855746677707649724e+04	4.287588742443739989e+02	-1.557444152335780988e-06	-3.367764416894648605e+01
1.855748891993362849e+04	4.292015702692120840e+02	-1.554479948756275700e-06	-3.367566583323637985e+01
1.855751141993361671e+04	4.296411393744153315e+02	-1.551545298463095660e-06	-3.367365903501491431e+01
1.855753356279074796e+04	4.300635582908721517e+02	-1.548733224851253839e-06	-3.367168746634103371e+01
1.855755570564787922e+04	4.304758289613367879e+02	-1.545996335788971214e-06	-3.366971923066917327e+01
1.855757784850501048e+04	4.308779064850592135e+02	-1.543334366761166728e-06	-3.366775431257462259e+01
1.855760034850499869e+04	4.312759937140556872e+02	-1.540705868396020755e-06	-3.366576108473525863e+01
1.855762249136212995e+04	4.316574307882050334e+02	-1.538193891969215879e-06	-3.366380280877817910e+01
1.855764463421926121e+04	4.320286085111523562e+02	-1.535755667957549982e-06	-3.366184780442674906e+01
1.855766677707639246e+04	4.323895271385585488e+02	-1.533390694207313350e-06	-3.365989605661948758e+01
1.855768891993352372e+04	4.327401973025893085e+02	-1.531098416855702346e-06	-3.365794755038355390e+01
1.855771141993351193e+04	4.330860467675043424e+02	-1.528843012559082447e-06	-3.365597092171731930e+01
1.855773356279064319e+04	4.334161261837710981e+02	-1.526695428720476131e-06	-3.365402890574100070e+01
1.855775570564777445e+04	4.337360456148113030e+02	-1.524618604245600083e-06	-3.365209008670652935e+01
1.855777784850490571e+04	4.340458504642506909e+02	-1.522611826713901768e-06	-3.365015444999065863e+01
1.855780034850489392e+04	4.343503450121704645e+02	-1.520643673249851664e-06	-3.364819083808064448e+01
1.855782249136202518e+04	4.346399209159214365e+02	-1.518775859192437798e-06	-3.364626157321521305e+01
1.855784463421915643e+04	4.349195542128783813e+02	-1.516975820196703496e-06	-3.364433544707731016e+01
1.855786677707628769e+04	4.351893099610883269e+02	-1.515242785028013284e-06	-3.364241244538278863e+01
1.855788891993341895e+04	4.354492553527798577e+02	-1.513575985207189578e-06	-3.364049255393041449e+01
1.855791141993340716e+04	4.357034146506749721e+02	-1.511949366697790837e-06	-3.363854486784153153e+01
1.855793356279053842e+04	4.359437882531967148e+02	-1.510413816413737805e-06	-3.363663120419469266e+01
1.855795570564766967e+04	4.361745555526390490e+02	-1.508942271072641324e-06	-3.363472060845303702e+01
1.855797784850480093e+04	4.363957809175687999e+02	-1.507534042831300367e-06	-3.363281306674213056e+01
1.855800034850478914e+04	4.366108631584198747e+02	-1.506167287662275896e-06	-3.363087787233956760e+01
1.855802249136192040e+04	4.368130315418472378e+02	-1.504884777403728861e-06	-3.362897644608880654e+01
1.855804463421905166e+04	4.370058275141748254e+02	-1.503663752806003423e-06	-3.362707803250327032e+01
1.855806677707618292e+04	4.371892960629293725e+02	-1.502503705098997618e-06	-3.362518261802596697e+01
1.855808891993331417e+04	4.373634752780657777e+02	-1.501404182061065425e-06	-3.362329018917749579e+01
1.855811141993330239e+04	4.375309799847732393e+02	-1.500348518101244666e-06	-3.362137028173142284e+01
1.855813356279043364e+04	4.376865152995184189e+02	-1.499369893404665908e-06	-3.361948383162560106e+01
1.855815570564756490e+04	4.378328284967174113e+02	-1.498450804729384921e-06	-3.361760032695763556e+01
1.855817784850469616e+04	4.379699246796650982e+02	-1.497591056094216769e-06	-3.361571975455429140e+01
1.855820034850468437e+04	4.380997868993359816e+02	-1.496778091890811683e-06	-3.361381184043734294e+01
1.855822249136181563e+04	4.382182794870930707e+02	-1.496037659172585583e-06	-3.361193714011004374e+01
1.855824463421894689e+04	4.383275162878985043e+02	-1.495356383172635664e-06	-3.361006533276712105e+01
1.855826677707607814e+04	4.384274667834445722e+02	-1.494734335695854500e-06	-3.360819640553312837e+01
1.855828891993320940e+04	4.385180921204393485e+02	-1.494171651425684453e-06	-3.360633034560549959e+01
1.855831141993319761e+04	4.386005790200901515e+02	-1.493660899401948607e-06	-3.360443711187700444e+01
1.855833356279032887e+04	4.386722540271615571e+02	-1.493218548756847973e-06	-3.360257679417723864e+01
1.855835570564746013e+04	4.387344414070238940e+02	-1.492836315278939218e-06	-3.360071930560567210e+01
1.855837784850459138e+04	4.387870745459846376e+02	-1.492514550126198542e-06	-3.359886463364726694e+01
1.855840034850457960e+04	4.388306962264072126e+02	-1.492249939360242770e-06	-3.359698291993279895e+01
1.855842249136171085e+04	4.388638449572820264e+02	-1.492051318737295898e-06	-3.359513388886445995e+01
1.855844463421884211e+04	4.388872122816574688e+02	-1.491914456034431242e-06	-3.359328763708657561e+01
1.855846677707597337e+04	4.389007175535097645e+02	-1.491839834746834803e-06	-3.359144415236382031e+01
1.855848891993310463e+04	4.389042792810167271e+02	-1.491827955292416451e-06	-3.358960342252934339e+01
1.855851141993309284e+04	4.388976294230613462e+02	-1.491880677950442286e-06	-3.358773581294173027e+01
1.855853356279022410e+04	4.388808982475404719e+02	-1.491996849645488628e-06	-3.358590060060129190e+01
1.855855570564735535e+04	4.388539841074676247e+02	-1.492177305686148809e-06	-3.358406810686253863e+01
1.855857784850448661e+04	4.388168135524651348e+02	-1.492422545465036162e-06	-3.358223831982909502e+01
1.855860034850447482e+04	4.387684669179697039e+02	-1.492738596714399182e-06	-3.358038178046096789e+01
1.855862249136160608e+04	4.387104154439850845e+02	-1.493115890602576472e-06	-3.357855741459336230e+01
1.855864463421873734e+04	4.386419193684271249e+02	-1.493559344551351842e-06	-3.357673571994929063e+01
1.855866677707586859e+04	4.385629306874782287e+02	-1.494069351481453222e-06	-3.357491668489566905e+01
1.855868891993299985e+04	4.384734100446572711e+02	-1.494646263617631494e-06	-3.357310029786386707e+01
1.855871141993298806e+04	4.383716265775064471e+02	-1.495301329126345082e-06	-3.357125731485082554e+01
1.855873356279011568e+04	4.382607914292619853e+02	-1.496014012550591277e-06	-3.356944623165917108e+01
1.855875570564724694e+04	4.381393651195666052e+02	-1.496794372176450438e-06	-3.356763776198312854e+01
1.855877784850437820e+04	4.380073495738744214e+02	-1.497642555206893051e-06	-3.356583189450891780e+01
1.855880034850436641e+04	4.378623716580727319e+02	-1.498573983127552045e-06	-3.356399955404982904e+01
1.855882249136149767e+04	4.377090590781975266e+02	-1.499559116036978850e-06	-3.356219889880442508e+01
1.855884463421862893e+04	4.375452324070811869e+02	-1.500612158652487196e-06	-3.356040081201298619e+01
1.855886677707576018e+04	4.373709397218245272e+02	-1.501733018643743005e-06	-3.355860528260983244e+01
1.855888891993289144e+04	4.371862403968012245e+02	-1.502921544170245632e-06	-3.355681229958997847e+01
1.855891141993287965e+04	4.369879747635387162e+02	-1.504198334588947542e-06	-3.355499299453904882e+01
1.855893356279001091e+04	4.367825189860593014e+02	-1.505522587414953088e-06	-3.355320511214219437e+01
1.855895570564714217e+04	4.365669000678400380e+02	-1.506913706934996136e-06	-3.355141974330074817e+01
1.855897784850427342e+04	4.363412181714882649e+02	-1.508371325389226557e-06	-3.354963687725014410e+01
1.855900034850426164e+04	4.361017003731557224e+02	-1.509920145514509048e-06	-3.354782780793837560e+01
1.855902249136139289e+04	4.358560681917021498e+02	-1.511510540225375946e-06	-3.354604995534685230e+01
1.855904463421852415e+04	4.356007225592987311e+02	-1.513166075880105183e-06	-3.354427457343378904e+01
1.855906677707565541e+04	4.353357918349820466e+02	-1.514886238230695928e-06	-3.354250165166866537e+01
1.855908891993278667e+04	4.350614087939010801e+02	-1.516670491562826734e-06	-3.354073117957849348e+01
1.855911141993277488e+04	4.347730580942654797e+02	-1.518548606252259833e-06	-3.353893465002033736e+01
1.855913356278990614e+04	4.344800337121968710e+02	-1.520460394129089513e-06	-3.353716908518003237e+01
1.855915570564703739e+04	4.341779723873459034e+02	-1.522434597512157473e-06	-3.353540593877072951e+01
1.855917784850416865e+04	4.338670127380356689e+02	-1.524470665549951568e-06	-3.353364520054630304e+01
1.855920034850415686e+04	4.335420639701791856e+02	-1.526602390836649077e-06	-3.353185851958463815e+01
1.855922249136128812e+04	4.332135779890192566e+02	-1.528761578983132764e-06	-3.353010260564484213e+01
1.855924463421841938e+04	4.328765974698289369e+02	-1.530981089980636878e-06	-3.352834906932183401e+01
1.855926677707555064e+04	4.325312477070289106e+02	-1.533260476806234109e-06	-3.352659790059075817e+01
1.855928891993268189e+04	4.321776479408180194e+02	-1.535599336038646606e-06	-3.352484908948100895e+01
1.855931141993267011e+04	4.318100098204108690e+02	-1.538036474136061120e-06	-3.352307447649545225e+01
1.855933356278980136e+04	4.314401100710561536e+02	-1.540494220873697022e-06	-3.352133038855860292e+01
1.855935570564693262e+04	4.310622740153266932e+02	-1.543010550546264287e-06	-3.351958862849568277e+01
1.855937784850406388e+04	4.306765878217002523e+02	-1.545585295247196815e-06	-3.351784918655072687e+01
1.855940034850405209e+04	4.302767182881407848e+02	-1.548261304481102102e-06	-3.351608405360073561e+01
1.855942249136118335e+04	4.298754263867883765e+02	-1.550953603617236080e-06	-3.351434925583144064e+01
1.855944463421831460e+04	4.294664825291246188e+02	-1.553704255391855784e-06	-3.351261674707174620e+01
1.855946677707544586e+04	4.290499308993581735e+02	-1.556513396096871919e-06	-3.351088651777483562e+01
1.855948891993257712e+04	4.286258047538867686e+02	-1.559381243145944082e-06	-3.350915855844524316e+01
1.855951141993256533e+04	4.281871021293575836e+02	-1.562355788457288090e-06	-3.350740504425900212e+01
1.855953356278969659e+04	4.277477618996288129e+02	-1.565342988382643480e-06	-3.350568163281314327e+01
1.855955570564682785e+04	4.273008826161296838e+02	-1.568390043406387219e-06	-3.350396046300265596e+01
1.855957784850395910e+04	4.268464556139709885e+02	-1.571497494359910995e-06	-3.350224152553509072e+01
1.855960034850394732e+04	4.263769492644896104e+02	-1.574717565941976251e-06	-3.350049714039292326e+01
1.855962249136107857e+04	4.259072414364771930e+02	-1.577948732877301376e-06	-3.349878267556547939e+01
1.855964463421820983e+04	4.254299060311275298e+02	-1.581242372501823999e-06	-3.349707041535377527e+01
1.855966677707534109e+04	4.249449013189506559e+02	-1.584599307483428559e-06	-3.349536035066338968e+01
1.855968891993247234e+04	4.244521794684507654e+02	-1.588020418889062969e-06	-3.349365247244850252e+01
1.855971141993246056e+04	4.239435511147501074e+02	-1.591563408588951504e-06	-3.349191927820351822e+01
1.855973356278959182e+04	4.234351054155881684e+02	-1.595116794081034500e-06	-3.349021578089820395e+01
1.855975570564672307e+04	4.229187717528769781e+02	-1.598737305429203822e-06	-3.348851444307626934e+01
1.855977784850385433e+04	4.223944883519385485e+02	-1.602425994836800958e-06	-3.348681525588409613e+01
1.855980034850384254e+04	4.218535413566610259e+02	-1.606245125110481761e-06	-3.348509085631884119e+01
1.855982249136097380e+04	4.213130408863214029e+02	-1.610074563797350229e-06	-3.348339597834645076e+01
1.855984463421810506e+04	4.207644049185724953e+02	-1.613975475683482533e-06	-3.348170322458451409e+01
1.855986677707523631e+04	4.202075758073777934e+02	-1.617948968604898594e-06	-3.348001258636713828e+01
1.855988891993236757e+04	4.196424996628266513e+02	-1.621996145734231860e-06	-3.347832405507429598e+01
