# time(us)	tip(nm)	Fts(nN)	Xb(nm)
1.855557784850606549e+04	3.970229213642906529e+02	-1.825404253750301569e-06	-3.012607092859686375e+01
1.855560034850605371e+04	3.984349003018829194e+02	-1.813418549310150351e-06	-3.012384043921634103e+01
1.855562249136318496e+04	3.998168922801970098e+02	-1.801801390883208679e-06	-3.012165062789885184e+01
1.855564463422031622e+04	4.011913608818154557e+02	-1.790357896579274811e-06	-3.011946601773667354e+01
1.855566677707744748e+04	4.025583075442357881e+02	-1.779084865005075936e-06	-3.011728657902429518e+01
1.855568891993457873e+04	4.039177439676619201e+02	-1.767979088242795860e-06	-3.011511228231170634e+01
1.855571141993456695e+04	4.052914359366958479e+02	-1.756862205249253078e-06	-3.011290815330112025e+01
1.855573356279169820e+04	4.066358050638190207e+02	-1.746083888177033589e-06	-3.011074413500426061e+01
1.855575570564882946e+04	4.079727550659214330e+02	-1.735463176696496965e-06	-3.010858517139451607e+01
1.855577784850596072e+04	4.093023320542134229e+02	-1.724996904116640454e-06	-3.010643123401357002e+01
1.855580034850594529e+04	4.106458555822482026e+02	-1.714516784649857610e-06	-3.010424767513152133e+01
1.855582249136307655e+04	4.119607328233933572e+02	-1.704352377401241709e-06	-3.010210378571845879e+01
1.855584463422020781e+04	4.132684106953182095e+02	-1.694333062940695199e-06	-3.009996483813313262e+01
1.855586677707733907e+04	4.145689546360529789e+02	-1.684455836148234809e-06	-3.009783080485703266e+01
1.855588891993447032e+04	4.158624321078171420e+02	-1.674717750952076515e-06	-3.009570165859801349e+01
1.855591141993445854e+04	4.171696041268245949e+02	-1.664962160313570434e-06	-3.009354314928203422e+01
1.855593356279158979e+04	4.184490420870108665e+02	-1.655495921141901518e-06	-3.009142377380601729e+01
1.855595570564872105e+04	4.197216175066412234e+02	-1.646160365006415128e-06	-3.008930920437203227e+01
1.855597784850585231e+04	4.209873942748293416e+02	-1.636952849967333346e-06	-3.008719941456809721e+01
1.855600034850584052e+04	4.222666847278447335e+02	-1.627725354443375968e-06	-3.008506046480384555e+01
1.855602249136297178e+04	4.235189325864979537e+02	-1.618768324962665588e-06	-3.008296023190727198e+01
1.855604463422010303e+04	4.247645478017636265e+02	-1.609931930655733551e-06	-3.008086470025303072e+01
1.855606677707723429e+04	4.260035732820966814e+02	-1.601213915255549195e-06	-3.007877384426520706e+01
1.855608891993436555e+04	4.272360444520379588e+02	-1.592612126139545450e-06	-3.007668763856970173e+01
1.855611141993435376e+04	4.284817084442971691e+02	-1.583988543700592008e-06	-3.007457252187439423e+01
1.855613356279148502e+04	4.297010389238997732e+02	-1.575614965511505379e-06	-3.007249561542765193e+01
1.855615570564861628e+04	4.309138697901964861e+02	-1.567351759859276640e-06	-3.007042328393818664e+01
1.855617784850574753e+04	4.321202001746548831e+02	-1.559197197389264508e-06	-3.006835550281731173e+01
1.855620034850573575e+04	4.333393176441264814e+02	-1.551020721197806277e-06	-3.006625900631192394e+01
1.855622249136286700e+04	4.345324986210361544e+02	-1.543080356693057172e-06	-3.006420032532997055e+01
1.855624463421999826e+04	4.357191152970137864e+02	-1.535244033456447520e-06	-3.006214612169323175e+01
1.855626677707712952e+04	4.368991261341355994e+02	-1.527510418715287645e-06	-3.006009637156095238e+01
1.855628891993426078e+04	4.380724797137133919e+02	-1.519878268849808031e-06	-3.005805105127310384e+01
1.855631141993424899e+04	4.392578763507007125e+02	-1.512225758874440128e-06	-3.005597725536150477e+01
1.855633356279138025e+04	4.404176133507029931e+02	-1.504794730628834212e-06	-3.005394079499921745e+01
1.855635570564851150e+04	4.415704822072559637e+02	-1.497461902474734790e-06	-3.005190869419283928e+01
1.855637784850564276e+04	4.427163963964436562e+02	-1.490226332965277006e-06	-3.004988092998707572e+01
1.855640034850563097e+04	4.438735728263595774e+02	-1.482972776754608056e-06	-3.004782487852555661e+01
1.855642249136276223e+04	4.450051745209159435e+02	-1.475930664758822494e-06	-3.004580578836320015e+01
1.855644463421989349e+04	4.461295212595479143e+02	-1.468983302260641596e-06	-3.004379096658935211e+01
1.855646677707702474e+04	4.472465035209856978e+02	-1.462129943110887871e-06	-3.004178039092141006e+01
1.855648891993415600e+04	4.483560085035181260e+02	-1.455369871881060746e-06	-3.003977403923942546e+01
1.855651141993414421e+04	4.494756311222196246e+02	-1.448595611900146626e-06	-3.003773963116170265e+01
1.855653356279127547e+04	4.505697100931243995e+02	-1.442021534920271331e-06	-3.003574172897915062e+01
1.855655570564840673e+04	4.516559625965593341e+02	-1.435538703123500748e-06	-3.003374798503351784e+01
1.855657784850553799e+04	4.527342735621513725e+02	-1.429146454936997756e-06	-3.003175837784045754e+01
1.855660034850552620e+04	4.538217256719011061e+02	-1.422743208895724620e-06	-3.002974089561613269e+01
1.855662249136265746e+04	4.548836854890421364e+02	-1.416531561092368245e-06	-3.002775956395270640e+01
1.855664463421978871e+04	4.559373740058262001e+02	-1.410408463353986687e-06	-3.002578230516765245e+01
1.855666677707691997e+04	4.569826909715005172e+02	-1.404373211531945343e-06	-3.002380909838471723e+01
1.855668891993405123e+04	4.580195421754983158e+02	-1.398425079293463510e-06	-3.002183992287489644e+01
1.855671141993403944e+04	4.590643551550015786e+02	-1.392469473534529163e-06	-3.001984309460143763e+01
1.855673356279117070e+04	4.600838803974799589e+02	-1.386694669796532030e-06	-3.001788198422461917e+01
1.855675570564830196e+04	4.610946998934960561e+02	-1.381004628458990264e-06	-3.001592484347617429e+01
1.855677784850543321e+04	4.620967507488643378e+02	-1.375398505354487918e-06	-3.001397165220323515e+01
1.855680034850542143e+04	4.631059263729563895e+02	-1.369787016586692409e-06	-3.001199098277665556e+01
1.855682249136255268e+04	4.640901443906853387e+02	-1.364347381133580736e-06	-3.001004569344911133e+01
1.855684463421968394e+04	4.650654598409294067e+02	-1.358988915903470279e-06	-3.000810429365354537e+01
1.855686677707681520e+04	4.660318473159090331e+02	-1.353710644140287843e-06	-3.000616676378939118e+01
1.855688891993394645e+04	4.669892908130561864e+02	-1.348511558591655144e-06	-3.000423308439007641e+01
1.855691141993393467e+04	4.679530084405352000e+02	-1.343308662576674211e-06	-3.000227214082531546e+01
1.855693356279106592e+04	4.688924081281859912e+02	-1.338266051761071121e-06	-3.000034616581129399e+01
1.855695570564819718e+04	4.698228697519504067e+02	-1.333299429331327050e-06	-2.999842398334635618e+01
1.855697784850532844e+04	4.707444117316454140e+02	-1.328407692832488346e-06	-2.999650557448862642e+01
1.855700034850531665e+04	4.716717070772599527e+02	-1.323512614406113259e-06	-2.999456006957227316e+01
1.855702249136244791e+04	4.725753503384287910e+02	-1.318768450953876927e-06	-2.999264921171879550e+01
1.855704463421957917e+04	4.734701698144746729e+02	-1.314095778366339611e-06	-2.999074207110770374e+01
1.855706677707671042e+04	4.743562078338148922e+02	-1.309493463532779724e-06	-2.998883862930112087e+01
1.855708891993384168e+04	4.752335103929262345e+02	-1.304960377969258688e-06	-2.998693886798359998e+01
1.855711141993382989e+04	4.761160651459948667e+02	-1.300423939304331092e-06	-2.998501221662999683e+01
1.855713356279096115e+04	4.769759053638231876e+02	-1.296027043061995730e-06	-2.998311982045848012e+01
1.855715570564809241e+04	4.778271604361165714e+02	-1.291696052965803409e-06	-2.998123105026398605e+01
1.855717784850522366e+04	4.786698803731406429e+02	-1.287429911240803555e-06	-2.997934588821103929e+01
1.855720034850521188e+04	4.795174995017069932e+02	-1.283160328478366445e-06	-2.997743399797627006e+01
1.855722249136234313e+04	4.803431552525259463e+02	-1.279021841379659949e-06	-2.997555605664810230e+01
1.855724463421947439e+04	4.811604116119083869e+02	-1.274945214447783300e-06	-2.997368167036959008e+01
1.855726677707660201e+04	4.819693050266585033e+02	-1.270929538799180857e-06	-2.997181082176720324e+01
1.855728891993373327e+04	4.827698660221275873e+02	-1.266973952859616321e-06	-2.996994349357980525e+01
1.855731141993372148e+04	4.835748285780846345e+02	-1.263015283534312067e-06	-2.996804963557907442e+01
1.855733356279085274e+04	4.843586545385055615e+02	-1.259178435638987220e-06	-2.996618935297282604e+01
1.855735570564798400e+04	4.851341955801799486e+02	-1.255399396587675917e-06	-2.996433253938972285e+01
1.855737784850511525e+04	4.859014502217420386e+02	-1.251677523441023702e-06	-2.996247917800949168e+01
1.855740034850510347e+04	4.866725805760472099e+02	-1.247953575425590645e-06	-2.996059944266565367e+01
1.855742249136223472e+04	4.874230849372794978e+02	-1.244345242500128798e-06	-2.995875299066642583e+01
1.855744463421936598e+04	4.881652389754664796e+02	-1.240792496587677107e-06	-2.995690994078398006e+01
1.855746677707649724e+04	4.888990007784223053e+02	-1.237294934367975717e-06	-2.995507027662316801e+01
1.855748891993362849e+04	4.896243179204057583e+02	-1.233852211318970083e-06	-2.995323398189235320e+01
1.855751141993361671e+04	4.903526188721766630e+02	-1.230409838038769769e-06	-2.995137150421979300e+01
1.855753356279074796e+04	4.910607087801731723e+02	-1.227076861767274944e-06	-2.994954195357732729e+01
1.855755570564787922e+04	4.917601335631019879e+02	-1.223798024446979993e-06	-2.994771572384485836e+01
1.855757784850501048e+04	4.924508005163045823e+02	-1.220573198051709651e-06	-2.994589279913735069e+01
1.855760034850499869e+04	4.931435316926472296e+02	-1.217351599325200362e-06	-2.994404384157707355e+01
1.855762249136212995e+04	4.938162241474901748e+02	-1.214235462480819154e-06	-2.994222753233088596e+01
1.855764463421926121e+04	4.944798277792382919e+02	-1.211173217049856871e-06	-2.994041448079473611e+01
1.855766677707639246e+04	4.951342183454403312e+02	-1.208164898080173435e-06	-2.993860467147624504e+01
1.855768891993352372e+04	4.957792658675924713e+02	-1.205210570241549372e-06	-2.993679808897871553e+01
1.855771141993351193e+04	4.964250083322837099e+02	-1.202263988540504569e-06	-2.993496565760488437e+01
1.855773356279064319e+04	4.970508056975135673e+02	-1.199418806080097698e-06	-2.993316553436726934e+01
1.855775570564777445e+04	4.976668436606910291e+02	-1.196627939430046810e-06	-2.993136859208365053e+01
1.855777784850490571e+04	4.982729798092246369e+02	-1.193891522226887166e-06	-2.992957481573361278e+01
1.855780034850489392e+04	4.988786027597685120e+02	-1.191166885313054240e-06	-2.992775533507389341e+01
1.855782249136202518e+04	4.994643427218521197e+02	-1.188540664440916278e-06	-2.992596789635828358e+01
1.855784463421915643e+04	5.000397544919641177e+02	-1.185969302782524805e-06	-2.992418357882533542e+01
1.855786677707628769e+04	5.006047016162477235e+02	-1.183452922171314833e-06	-2.992240236781859508e+01
1.855788891993341895e+04	5.011590519510231729e+02	-1.180991629866489951e-06	-2.992062424877028093e+01
1.855791141993340716e+04	5.017113583393820591e+02	-1.178547158650104764e-06	-2.991882060263732157e+01
1.855793356279053842e+04	5.022439652479057486e+02	-1.176197177494071447e-06	-2.991704867344141761e+01
1.855795570564766967e+04	5.027656132333177084e+02	-1.173902479693284916e-06	-2.991527979279620908e+01
1.855797784850480093e+04	5.032761973815992178e+02	-1.171663075811222017e-06	-2.991351394648330952e+01
1.855800034850478914e+04	5.037835849327648816e+02	-1.169444169517768798e-06	-2.991172271236214897e+01
1.855802249136192040e+04	5.042715807177173133e+02	-1.167316146357458434e-06	-2.990996294077069706e+01
1.855804463421905166e+04	5.047482524261083086e+02	-1.165243248991207325e-06	-2.990820616114068997e+01
1.855806677707618292e+04	5.052135341939883233e+02	-1.163225349777221640e-06	-2.990645235959203774e+01
1.855808891993331417e+04	5.056673709273860595e+02	-1.161262283712019793e-06	-2.990470152232729717e+01
1.855811141993330239e+04	5.061167587724028181e+02	-1.159323513436668267e-06	-2.990292546801352813e+01
1.855813356279043364e+04	5.065473979493667116e+02	-1.157470343906523910e-06	-2.990118056550998205e+01
1.855815570564756490e+04	5.069664923285930627e+02	-1.155671284261098988e-06	-2.989943858616912209e+01
1.855817784850469616e+04	5.073740306180710604e+02	-1.153926022607036359e-06	-2.989769951651878443e+01
1.855820034850468437e+04	5.077763040808673622e+02	-1.152207362426050139e-06	-2.989593536403077323e+01
1.855822249136181563e+04	5.081605514657440494e+02	-1.150569482577140390e-06	-2.989420212005320465e+01
1.855824463421894689e+04	5.085332699954775535e+02	-1.148984267155356777e-06	-2.989247174561101872e+01
1.855826677707607814e+04	5.088944872181656365e+02	-1.147451285032709683e-06	-2.989074422754745086e+01
1.855828891993320940e+04	5.092442387519571980e+02	-1.145970082766730641e-06	-2.988901955278277356e+01
1.855831141993319761e+04	5.095879310347565365e+02	-1.144517543155682765e-06	-2.988726995975057577e+01
1.855833356279032887e+04	5.099147031252251168e+02	-1.143139284855610745e-06	-2.988555097798579041e+01
1.855835570564746013e+04	5.102301571287073330e+02	-1.141811341225972905e-06	-2.988383480053061803e+01
1.855837784850459138e+04	5.105343520841604459e+02	-1.140533207694773901e-06	-2.988212141460903482e+01
1.855840034850457960e+04	5.108319847145334052e+02	-1.139284958846739563e-06	-2.988038323978406297e+01
1.855842249136171085e+04	5.111136718168907578e+02	-1.138105710201136994e-06	-2.987867544341107262e+01
1.855844463421884211e+04	5.113842935510623420e+02	-1.136974754081902351e-06	-2.987697040048476183e+01
1.855846677707597337e+04	5.116439156566314637e+02	-1.135891603420543739e-06	-2.987526809852399268e+01
1.855848891993310463e+04	5.118926028240287565e+02	-1.134855786323235236e-06	-2.987356852511951999e+01
1.855851141993309284e+04	5.121341646080638839e+02	-1.133851281356038699e-06	-2.987184432146007040e+01
1.855853356279022410e+04	5.123609926419843532e+02	-1.132909542542729245e-06	-2.987015021173828799e+01
1.855855570564735535e+04	5.125770641103313210e+02	-1.132013846378936030e-06	-2.986845879357628064e+01
1.855857784850448661e+04	5.127824294140149277e+02	-1.131163821019855527e-06	-2.986677005484905933e+01
1.855860034850447482e+04	5.129801864193733536e+02	-1.130346518819522775e-06	-2.986505681059393424e+01
1.855862249136160608e+04	5.131640957185793468e+02	-1.129587579689056536e-06	-2.986337343736985517e+01
1.855864463421873734e+04	5.133374130666541078e+02	-1.128873402494239042e-06	-2.986169270742887605e+01
1.855866677707586859e+04	5.135001616928558406e+02	-1.128203764184286152e-06	-2.986001460892217452e+01
1.855868891993299985e+04	5.136523567495455609e+02	-1.127578483523283818e-06	-2.985833913006838713e+01
1.855871141993298806e+04	5.137962032348436878e+02	-1.126988411934388264e-06	-2.985663929867108379e+01
1.855873356279011568e+04	5.139271327100751705e+02	-1.126452185934306368e-06	-2.985496906582751464e+01
1.855875570564724694e+04	5.140475029470510435e+02	-1.125960032235900121e-06	-2.985330141750712230e+01
1.855877784850437820e+04	5.141572948257273765e+02	-1.125511943174759499e-06	-2.985163634219508921e+01
1.855880034850436641e+04	5.142579935183495081e+02	-1.125101799141562179e-06	-2.984994703463194199e+01
1.855882249136149767e+04	5.143463661034164716e+02	-1.124742697534161411e-06	-2.984828711209138419e+01
1.855884463421862893e+04	5.144240532036864124e+02	-1.124427887819501652e-06	-2.984662972822206584e+01
1.855886677707576018e+04	5.144910042876376792e+02	-1.124157522558328160e-06	-2.984497487176831854e+01
1.855888891993289144e+04	5.145471623076443848e+02	-1.123931788845976546e-06	-2.984332253153791115e+01
1.855891141993287965e+04	5.145931057743198380e+02	-1.123748356790384872e-06	-2.984164610662464412e+01
1.855893356279001091e+04	5.146273073878438709e+02	-1.123613300308179909e-06	-2.983999880565159657e+01
1.855895570564714217e+04	5.146505121537239802e+02	-1.123523617825683200e-06	-2.983835398752442813e+01
1.855897784850427342e+04	5.146626449527715295e+02	-1.123479602795961133e-06	-2.983671164130124609e+01
1.855900034850426164e+04	5.146635526075205007e+02	-1.123481975963384427e-06	-2.983504532644760943e+01
1.855902249136139289e+04	5.146531269149658101e+02	-1.123530989944654544e-06	-2.983340793088269649e+01
1.855904463421852415e+04	5.146313940839226007e+02	-1.123626643085160172e-06	-2.983177297458928479e+01
1.855906677707565541e+04	5.145982768873305986e+02	-1.123769272101816394e-06	-2.983014044686917998e+01
1.855908891993278667e+04	5.145537002908511113e+02	-1.123959213776081356e-06	-2.982851033708389821e+01
1.855911141993277488e+04	5.144965926977635036e+02	-1.124201024971689387e-06	-2.982685640105843561e+01
1.855913356278990614e+04	5.144286987451828281e+02	-1.124487357635442609e-06	-2.982523113403657433e+01
1.855915570564703739e+04	5.143491431538707275e+02	-1.124821976466904364e-06	-2.982360825321968179e+01
1.855917784850416865e+04	5.142578702519209628e+02	-1.125205176727234298e-06	-2.982198774820490073e+01
1.855920034850415686e+04	5.141530730300218011e+02	-1.125644604192233795e-06	-2.982034352894913098e+01
1.855922249136128812e+04	5.140380375170052503e+02	-1.126126564031516736e-06	-2.981872778246293620e+01
1.855924463421841938e+04	5.139111638242609388e+02	-1.126657861849333146e-06	-2.981711438075036114e+01
1.855926677707555064e+04	5.137724299570613766e+02	-1.127238693917860411e-06	-2.981550331363798634e+01
1.855928891993268189e+04	5.136218239202044060e+02	-1.127869225176715949e-06	-2.981389457100859275e+01
1.855931141993267011e+04	5.134566262480815340e+02	-1.128560969847901854e-06	-2.981226225157901055e+01
1.855933356278980136e+04	5.132820907213227883e+02	-1.129292065822331398e-06	-2.981065816487327425e+01
1.855935570564693262e+04	5.130957112330800101e+02	-1.130073151725504580e-06	-2.980905637247245110e+01
1.855937784850406388e+04	5.128975191561437441e+02	-1.130904252018011958e-06	-2.980745686448138088e+01
1.855940034850405209e+04	5.126840741956917782e+02	-1.131799975682111105e-06	-2.980583388781516874e+01
1.855942249136118335e+04	5.124622063810029431e+02	-1.132731838269560033e-06	-2.980423895562434922e+01
1.855944463421831460e+04	5.122286863844016125e+02	-1.133713570967714534e-06	-2.980264627832638880e+01
1.855946677707544586e+04	5.119835882287286495e+02	-1.134745056554556579e-06	-2.980105584624253368e+01
1.855948891993257712e+04	5.117269955375511472e+02	-1.135826145860155254e-06	-2.979946764974708628e+01
1.855951141993256533e+04	5.114545855214742573e+02	-1.136975298001858017e-06	-2.979785611728673800e+01
1.855953356278969659e+04	5.111751083739639512e+02	-1.138155822983597747e-06	-2.979627239897348900e+01
1.855955570564682785e+04	5.108844401724918498e+02	-1.139385332829202051e-06	-2.979469088753394246e+01
1.855957784850395910e+04	5.105826957782969089e+02	-1.140663576447916051e-06	-2.979311157355193984e+01
1.855960034850394732e+04	5.102648629245101120e+02	-1.142012079944664629e-06	-2.979150902802749101e+01
1.855962249136107857e+04	5.099411581194136147e+02	-1.143387748759077423e-06	-2.978993411598275642e+01
1.855964463421820983e+04	5.096067527128714687e+02	-1.144811307665097545e-06	-2.978836137330496214e+01
1.855966677707534109e+04	5.092617772641135616e+02	-1.146282462375257038e-06	-2.978679079078226977e+01
1.855968891993247234e+04	5.089063634443092496e+02	-1.147800918804794156e-06	-2.978522235925289863e+01
1.855971141993246056e+04	5.085346604268879105e+02	-1.149392020886165253e-06	-2.978363082437044440e+01
1.855973356278959182e+04	5.081586004932280503e+02	-1.151004974012368283e-06	-2.978206670186744276e+01
1.855975570564672307e+04	5.077724944298107630e+02	-1.152664390083539461e-06	-2.978050470302481756e+01
1.855977784850385433e+04	5.073764668849734107e+02	-1.154370022564441163e-06	-2.977894481887877021e+01
1.855980034850384254e+04	5.069640127190161820e+02	-1.156150276008506204e-06	-2.977736193226367689e+01
1.855982249136097380e+04	5.065483418981713726e+02	-1.157948436387092264e-06	-2.977580628456204082e+01
1.855984463421810506e+04	5.061230944197760095e+02	-1.159792227931180763e-06	-2.977425272481380247e+01
1.855986677707523631e+04	5.056883711919838902e+02	-1.161681522784119707e-06	-2.977270124424822129e+01
1.855988891993236757e+04	5.052442651029674607e+02	-1.163616232181947948e-06	-2.977115183414201383e+01
