# time(us)	tip(nm)	Fts(nN)	Xb(nm)
1.855557784850606549e+04	3.785678941389231227e+02	-2.175070751700102832e-06	-1.274040448458179675e+01
1.855560034850605371e+04	3.807417672988073036e+02	-2.151126512809805921e-06	-1.273922678999301716e+01
1.855562249136318496e+04	3.828794185297742274e+02	-2.127964684079720625e-06	-1.273807157952110636e+01
1.855564463422031622e+04	3.850152519898194896e+02	-2.105194111464151718e-06	-1.273692009930438118e+01
1.855566677707744748e+04	3.871491509867910281e+02	-2.082807166894435178e-06	-1.273577231992582526e+01
1.855568891993457873e+04	3.892809973701225772e+02	-2.060796409888124025e-06	-1.273462821235471587e+01
1.855571141993456695e+04	3.914450030292107385e+02	-2.038808500580889890e-06	-1.273346938305013865e+01
1.855573356279169820e+04	3.935723477957121759e+02	-2.017534281391362579e-06	-1.273233259158653219e+01
1.855575570564882946e+04	3.956972785307032723e+02	-1.996614854545305797e-06	-1.273119938663893080e+01
1.855577784850596072e+04	3.978196750239243897e+02	-1.976043445657098257e-06	-1.273006974065854990e+01
1.855580034850594529e+04	3.999735845173352686e+02	-1.955489897673639631e-06	-1.272892549210969193e+01
1.855582249136307655e+04	4.020905084345637874e+02	-1.935600129214992724e-06	-1.272780293913356076e+01
1.855584463422020781e+04	4.042045398886833709e+02	-1.916038805176475082e-06	-1.272668386414277997e+01
1.855586677707733907e+04	4.063155628028742967e+02	-1.896799699362912389e-06	-1.272556824096610661e+01
1.855588891993447032e+04	4.084234630243831248e+02	-1.877876707372997679e-06	-1.272445604376006756e+01
1.855591141993445854e+04	4.105620477489152336e+02	-1.858966143064416869e-06	-1.272332939091052140e+01
1.855593356279158979e+04	4.126633145651599648e+02	-1.840662388520467811e-06	-1.272222402363195748e+01
1.855595570564872105e+04	4.147611291140066214e+02	-1.822657026832860712e-06	-1.272112200630352419e+01
1.855597784850585231e+04	4.168553878774800978e+02	-1.804944398419058943e-06	-1.272002331434059386e+01
1.855600034850584052e+04	4.189796794513823670e+02	-1.787240213155309301e-06	-1.271891028278187008e+01
1.855602249136297178e+04	4.210664677936946418e+02	-1.770100977788644688e-06	-1.271781822165098852e+01
1.855604463422010303e+04	4.231494081802506457e+02	-1.753238013566176661e-06	-1.271672941352920994e+01
1.855606677707723429e+04	4.252284107714495462e+02	-1.736646056587755331e-06	-1.271564383500422935e+01
1.855608891993436555e+04	4.273033893157387411e+02	-1.720319936853193174e-06	-1.271456146294302592e+01
1.855611141993435376e+04	4.294076282043405399e+02	-1.703997567627213790e-06	-1.271346489418512071e+01
1.855613356279148502e+04	4.314742460162386237e+02	-1.688192067453585414e-06	-1.271238891754579647e+01
1.855615570564861628e+04	4.335366010526332730e+02	-1.672637369402834059e-06	-1.271131607924093210e+01
1.855617784850574753e+04	4.355946209544087537e+02	-1.657328671496489766e-06	-1.271024635721132512e+01
1.855620034850573575e+04	4.376813228632365735e+02	-1.642020191267017171e-06	-1.270916255122239136e+01
1.855622249136286700e+04	4.397303950992979367e+02	-1.627193229681546600e-06	-1.270809904597326856e+01
1.855624463421999826e+04	4.417749320476934258e+02	-1.612598333062807508e-06	-1.270703859199872632e+01
1.855626677707712952e+04	4.438148725500707314e+02	-1.598231063044069989e-06	-1.270598116824155177e+01
1.855628891993426078e+04	4.458501575701029083e+02	-1.584087072063172682e-06	-1.270492675388352311e+01
1.855631141993424899e+04	4.479134421157868928e+02	-1.569939279029540982e-06	-1.270385839424462304e+01
1.855633356279138025e+04	4.499391685885780134e+02	-1.556232599439228946e-06	-1.270280998487907809e+01
1.855635570564851150e+04	4.519600710757750903e+02	-1.542736637968500528e-06	-1.270176452352940188e+01
1.855637784850564276e+04	4.539760957105906982e+02	-1.529447413501917274e-06	-1.270072199029750593e+01
1.855640034850563097e+04	4.560195853027188377e+02	-1.516151606975731540e-06	-1.269966562108910679e+01
1.855642249136276223e+04	4.580256129957800226e+02	-1.503267458679325484e-06	-1.269862893171148421e+01
1.855644463421989349e+04	4.600266012576349794e+02	-1.490578593105518417e-06	-1.269759511175194788e+01
1.855646677707702474e+04	4.620224956023798200e+02	-1.478081395228508144e-06	-1.269656414217277529e+01
1.855648891993415600e+04	4.640132405095208696e+02	-1.465772340222292409e-06	-1.269553600414173644e+01
1.855651141993414421e+04	4.660307609329583443e+02	-1.453453933821764904e-06	-1.269449416447582912e+01
1.855653356279127547e+04	4.680109492616199987e+02	-1.441513845434814854e-06	-1.269347167877200988e+01
1.855655570564840673e+04	4.699858112650064754e+02	-1.429751806892181221e-06	-1.269245196902685002e+01
1.855657784850553799e+04	4.719552842411223992e+02	-1.418164646751327654e-06	-1.269143501720029121e+01
1.855660034850552620e+04	4.739509357387649402e+02	-1.406566550698968630e-06	-1.269040446954370616e+01
1.855662249136265746e+04	4.759093431043095279e+02	-1.395322669093805270e-06	-1.268939302395466484e+01
1.855664463421978871e+04	4.778621570280876654e+02	-1.384244607604313905e-06	-1.268838428300775512e+01
1.855666677707691997e+04	4.798093041746168979e+02	-1.373329525076150486e-06	-1.268737822940530080e+01
1.855668891993405123e+04	4.817507082917406933e+02	-1.362574657662890694e-06	-1.268637484602720278e+01
1.855671141993403944e+04	4.837174610870040965e+02	-1.351807668043030958e-06	-1.268535799677001030e+01
1.855673356279117070e+04	4.856470427062934618e+02	-1.341367714488243521e-06	-1.268435994556440782e+01
1.855675570564830196e+04	4.875706335778227754e+02	-1.331080084324428672e-06	-1.268336451399407494e+01
1.855677784850543321e+04	4.894881458756664756e+02	-1.320942299851552871e-06	-1.268237168562440154e+01
1.855680034850542143e+04	4.914302661861602246e+02	-1.310792008401143188e-06	-1.268136549365862997e+01
1.855682249136255268e+04	4.933352456841993785e+02	-1.300949058960313423e-06	-1.268037786437396797e+01
1.855684463421968394e+04	4.952338664448019472e+02	-1.291248862030760239e-06	-1.267939278970457551e+01
1.855686677707681520e+04	4.971260312151453604e+02	-1.281689182229404774e-06	-1.267841025385967946e+01
1.855688891993394645e+04	4.990116409985115524e+02	-1.272267837284434284e-06	-1.267743024120274420e+01
1.855691141993393467e+04	5.009208459724904401e+02	-1.262834039371663366e-06	-1.267643699050510975e+01
1.855693356279106592e+04	5.027929335156683237e+02	-1.253685161710161338e-06	-1.267546201799429717e+01
1.855695570564819718e+04	5.046581600701233583e+02	-1.244668329470991308e-06	-1.267448952242017945e+01
1.855697784850532844e+04	5.065164228679362282e+02	-1.235781544977146163e-06	-1.267351948874244805e+01
1.855700034850531665e+04	5.083974186251147671e+02	-1.226882619389991978e-06	-1.267253631579771067e+01
1.855702249136244791e+04	5.102413293273315276e+02	-1.218252110647285609e-06	-1.267157120047108521e+01
1.855704463421957917e+04	5.120779675580275807e+02	-1.209745851022578749e-06	-1.267060850253451143e+01
1.855706677707671042e+04	5.139072326387877183e+02	-1.201361984967607878e-06	-1.266964820750906817e+01
1.855708891993384168e+04	5.157290253462017517e+02	-1.193098686579429148e-06	-1.266869030105049987e+01
1.855711141993382989e+04	5.175724473690579543e+02	-1.184823757709129592e-06	-1.266771937651828139e+01
1.855713356279096115e+04	5.193788808476502936e+02	-1.176798098388751474e-06	-1.266676624264385076e+01
1.855715570564809241e+04	5.211775550167903930e+02	-1.168887659802509254e-06	-1.266581545486808302e+01
1.855717784850522366e+04	5.229683799030748332e+02	-1.161090716756549056e-06	-1.266486699936818461e+01
1.855720034850521188e+04	5.247799593440432773e+02	-1.153282518185948445e-06	-1.266390562109845774e+01
1.855722249136234313e+04	5.265546981282691377e+02	-1.145709237361162400e-06	-1.266296182624773081e+01
1.855724463421947439e+04	5.283213356110172754e+02	-1.138244373948722099e-06	-1.266202032273248790e+01
1.855726677707660201e+04	5.300797953330287555e+02	-1.130886282757938683e-06	-1.266108109722203601e+01
1.855728891993373327e+04	5.318300046170453470e+02	-1.123633336684693936e-06	-1.266014413650393600e+01
1.855731141993372148e+04	5.335999211220511143e+02	-1.116369452909755480e-06	-1.265919436991044122e+01
1.855733356279085274e+04	5.353332912925860683e+02	-1.109323617710325987e-06	-1.265826193560696211e+01
1.855735570564798400e+04	5.370582154191822610e+02	-1.102378126676084844e-06	-1.265733172694491770e+01
1.855737784850511525e+04	5.387746364931111884e+02	-1.095531423228742191e-06	-1.265640373117038209e+01
1.855740034850510347e+04	5.405099771325560596e+02	-1.088673894941315137e-06	-1.265546302141462576e+01
1.855742249136223472e+04	5.422090970191567294e+02	-1.082021700177443155e-06	-1.265453944877635450e+01
1.855744463421936598e+04	5.438995644797059867e+02	-1.075463707629812907e-06	-1.265361805121980865e+01
1.855746677707649724e+04	5.455813369487904083e+02	-1.068998434913128715e-06	-1.265269881642487171e+01
1.855748891993362849e+04	5.472543749736701102e+02	-1.062624419552126738e-06	-1.265178173217582547e+01
1.855751141993361671e+04	5.489454129033002800e+02	-1.056239589800420809e-06	-1.265085204662666740e+01
1.855753356279074796e+04	5.506007325147199936e+02	-1.050045199284280626e-06	-1.264993926143211844e+01
1.855755570564787922e+04	5.522472147523296826e+02	-1.043937783354506814e-06	-1.264902859055751527e+01
1.855757784850501048e+04	5.538848297602105504e+02	-1.037915967313325164e-06	-1.264812002219257714e+01
1.855760034850499869e+04	5.555397458538438968e+02	-1.031883316250589044e-06	-1.264719894108786313e+01
1.855762249136212995e+04	5.571593985286234556e+02	-1.026029999253776662e-06	-1.264629457614124242e+01
1.855764463421926121e+04	5.587701017937525876e+02	-1.020258284278762435e-06	-1.264539227866920790e+01
1.855766677707639246e+04	5.603718297485733046e+02	-1.014566897735036218e-06	-1.264449203724603521e+01
1.855768891993352372e+04	5.619645565250266372e+02	-1.008954593121369157e-06	-1.264359384053863700e+01
1.855771141993351193e+04	5.635737253262381046e+02	-1.003331517954748296e-06	-1.264268323966171792e+01
1.855773356279064319e+04	5.651482241324189317e+02	-9.978749762955004395e-07	-1.264178913127875248e+01
1.855775570564777445e+04	5.667136401688335354e+02	-9.924939272230899691e-07	-1.264089703397900877e+01
1.855777784850490571e+04	5.682699440152107400e+02	-9.871872387675276031e-07	-1.264000693678991460e+01
1.855780034850489392e+04	5.698419836247227295e+02	-9.818699926546279981e-07	-1.263910452074515511e+01
1.855782249136202518e+04	5.713798193581857277e+02	-9.767099033141932476e-07	-1.263821842302845333e+01
1.855784463421915643e+04	5.729084425861789214e+02	-9.716209396411670746e-07	-1.263733429284997101e+01
1.855786677707628769e+04	5.744278153414364851e+02	-9.666020887142886341e-07	-1.263645211957988046e+01
1.855788891993341895e+04	5.759378969618087467e+02	-9.616523671153275015e-07	-1.263557189267108782e+01
1.855791141993340716e+04	5.774627727857745185e+02	-9.566926395462174181e-07	-1.263467945148070015e+01
1.855793356279053842e+04	5.789539869263198852e+02	-9.518794200162498355e-07	-1.263380311695104474e+01
1.855795570564766967e+04	5.804357695939884252e+02	-9.471325388027357511e-07	-1.263292869746220681e+01
1.855797784850480093e+04	5.819080681379447242e+02	-9.424511268248208120e-07	-1.263205618278936271e+01
1.855800034850478914e+04	5.833943412225218026e+02	-9.377604026557706612e-07	-1.263117153599788445e+01
1.855802249136192040e+04	5.848473460107699111e+02	-9.332084511747295256e-07	-1.263030283090768791e+01
1.855804463421905166e+04	5.862906895011582264e+02	-9.287195068238238495e-07	-1.262943600026189372e+01
1.855806677707618292e+04	5.877243071559284999e+02	-9.242928028976042287e-07	-1.262857103414280147e+01
1.855808891993331417e+04	5.891481317963171023e+02	-9.199275956142569812e-07	-1.262770792270698372e+01
1.855811141993330239e+04	5.905848184297269654e+02	-9.155542307471499298e-07	-1.262683277985368413e+01
1.855813356279043364e+04	5.919886851478688641e+02	-9.113108344852397448e-07	-1.262597337806799835e+01
1.855815570564756490e+04	5.933825424406880984e+02	-9.071268182719433642e-07	-1.262511580171755199e+01
1.855817784850469616e+04	5.947663148699754174e+02	-9.030015181390726193e-07	-1.262426004124857748e+01
1.855820034850468437e+04	5.961619969830868513e+02	-8.988691586029655033e-07	-1.262339232847534376e+01
1.855822249136181563e+04	5.975252025931877142e+02	-8.948602852713684274e-07	-1.262254020029430102e+01
1.855824463421894689e+04	5.988780891307711727e+02	-8.909082208325804244e-07	-1.262168985960050627e+01
1.855826677707607814e+04	6.002205778986237874e+02	-8.870123601992493446e-07	-1.262084129711686309e+01
1.855828891993320940e+04	6.015525902861460281e+02	-8.831721097121531285e-07	-1.261999450363327924e+01
1.855831141993319761e+04	6.028952750568835199e+02	-8.793262816656447944e-07	-1.261913585480246169e+01
1.855833356279032887e+04	6.042059289291568120e+02	-8.755963837366666062e-07	-1.261829260011721487e+01
1.855835570564746013e+04	6.055058735602206070e+02	-8.719203624926001942e-07	-1.261745108705140694e+01
1.855837784850459138e+04	6.067950343500356212e+02	-8.682976584118846872e-07	-1.261661130665659947e+01
1.855840034850457960e+04	6.080938670150956114e+02	-8.646705675381820948e-07	-1.261575974708274295e+01
1.855842249136171085e+04	6.093610672787780231e+02	-8.611536796632595243e-07	-1.261492343302630736e+01
1.855844463421884211e+04	6.106172712271786622e+02	-8.576884536532870770e-07	-1.261408882503247142e+01
1.855846677707597337e+04	6.118624135293885047e+02	-8.542743487837134580e-07	-1.261325591440330385e+01
1.855848891993310463e+04	6.130964318102943480e+02	-8.509108273048485041e-07	-1.261242469250165321e+01
1.855851141993309284e+04	6.143388980377177404e+02	-8.475443180346577008e-07	-1.261158178476590308e+01
1.855853356279022410e+04	6.155503122021107174e+02	-8.442811539945913150e-07	-1.261075394153980689e+01
1.855855570564735535e+04	6.167504339167537637e+02	-8.410669651837182719e-07	-1.260992776135175220e+01
1.855857784850448661e+04	6.179392142812120028e+02	-8.379012221070542091e-07	-1.260910323580214509e+01
1.855860034850447482e+04	6.191355046340125909e+02	-8.347334992078838001e-07	-1.260826709774801024e+01
1.855862249136160608e+04	6.203012851960323815e+02	-8.316638259465219189e-07	-1.260744588285835377e+01
1.855864463421873734e+04	6.214555984611452004e+02	-8.286410118591239209e-07	-1.260662629761949027e+01
1.855866677707586859e+04	6.225984096845558042e+02	-8.256645349084010988e-07	-1.260580833385971822e+01
1.855868891993299985e+04	6.237296874489219363e+02	-8.227338755329847191e-07	-1.260499198346268024e+01
1.855871141993298806e+04	6.248673685580965866e+02	-8.198023474168679127e-07	-1.260416411042744755e+01
1.855873356279011568e+04	6.259753105667850832e+02	-8.169624947739400113e-07	-1.260335098832276302e+01
1.855875570564724694e+04	6.270716427476689887e+02	-8.141669122426925276e-07	-1.260253945543027854e+01
1.855877784850437820e+04	6.281563451223347556e+02	-8.114150951214163404e-07	-1.260172950385030788e+01
1.855880034850436641e+04	6.292466117195610877e+02	-8.086632094459588599e-07	-1.260090810023002206e+01
1.855882249136149767e+04	6.303078148312852136e+02	-8.059981165136288539e-07	-1.260010131297520175e+01
1.855884463421862893e+04	6.313573399794541956e+02	-8.033753012700015844e-07	-1.259929608352311270e+01
1.855886677707576018e+04	6.323951741095992247e+02	-8.007942843274157568e-07	-1.259849240418237493e+01
1.855888891993289144e+04	6.334213050313514941e+02	-7.982545944458099372e-07	-1.259769026731221331e+01
1.855891141993287965e+04	6.344519865403358381e+02	-7.957157980061254096e-07	-1.259687676492279707e+01
1.855893356279001091e+04	6.354544868729100244e+02	-7.932580329671509066e-07	-1.259607771484454375e+01
1.855895570564714217e+04	6.364452487602260362e+02	-7.908402304515794627e-07	-1.259528018449305975e+01
1.855897784850427342e+04	6.374242598021961612e+02	-7.884619592269148523e-07	-1.259448416642609736e+01
1.855900034850426164e+04	6.384070109230814296e+02	-7.860853895568586461e-07	-1.259367685081243238e+01
1.855902249136139289e+04	6.393622888300367322e+02	-7.837855553161170652e-07	-1.259288385927434817e+01
1.855904463421852415e+04	6.403057713943074987e+02	-7.815240244536416885e-07	-1.259209235786449277e+01
1.855906677707565541e+04	6.412374404529335834e+02	-7.793004157051127027e-07	-1.259130233933179177e+01
1.855908891993278667e+04	6.421572756776656661e+02	-7.771143613767710998e-07	-1.259051379647164381e+01
1.855911141993277488e+04	6.430798018598225099e+02	-7.749311516730681668e-07	-1.258971403937270495e+01
1.855913356278990614e+04	6.439757067536874047e+02	-7.728197506562007660e-07	-1.258892844994083937e+01
1.855915570564703739e+04	6.448597011591142518e+02	-7.707448799147070103e-07	-1.258814431472907280e+01
1.855917784850416865e+04	6.457317540111392873e+02	-7.687062284985351985e-07	-1.258736162671537251e+01
1.855920034850415686e+04	6.466056051231356605e+02	-7.666714904391397059e-07	-1.258656778991514535e+01
1.855922249136128812e+04	6.474534755488679139e+02	-7.647049743537718891e-07	-1.258578799847002827e+01
1.855924463421841938e+04	6.482892923911061871e+02	-7.627738255274125278e-07	-1.258500963331140099e+01
1.855926677707555064e+04	6.491130123939429950e+02	-7.608777892064798397e-07	-1.258423268759341340e+01
1.855928891993268189e+04	6.499245893441916451e+02	-7.590166238986427792e-07	-1.258345715451311264e+01
1.855931141993267011e+04	6.507367672969540990e+02	-7.571609235436508900e-07	-1.258267055287102032e+01
1.855933356278980136e+04	6.515237103551395421e+02	-7.553693800412093121e-07	-1.258189784733932015e+01
1.855935570564693262e+04	6.522983544012179209e+02	-7.536120545433325358e-07	-1.258112653418284310e+01
1.855937784850406388e+04	6.530606428633261658e+02	-7.518887535421110598e-07	-1.258035660676724099e+01
1.855940034850405209e+04	6.538225098360322818e+02	-7.501723208381049008e-07	-1.257957567382483433e+01
1.855942249136118335e+04	6.545597079123738240e+02	-7.485170704481323041e-07	-1.257880852023703255e+01
1.855944463421831460e+04	6.552843687266506549e+02	-7.468953202390256715e-07	-1.257804273262741823e+01
1.855946677707544586e+04	6.559964294230090900e+02	-7.453069133777224514e-07	-1.257727830452451379e+01
1.855948891993257712e+04	6.566958264140452002e+02	-7.437517000995746509e-07	-1.257651522949655920e+01
1.855951141993256533e+04	6.573934664089357511e+02	-7.422052558902650520e-07	-1.257574122621060120e+01
1.855953356278969659e+04	6.580671373056444509e+02	-7.407165341757159311e-07	-1.257498085976081725e+01
1.855955570564682785e+04	6.587279520370899490e+02	-7.392605884116137871e-07	-1.257422182722413062e+01
1.855957784850395910e+04	6.593758478475881475e+02	-7.378372885524731144e-07	-1.257346412232497102e+01
1.855960034850394732e+04	6.600208970085914189e+02	-7.364243411846187156e-07	-1.257269554988613081e+01
1.855962249136107857e+04	6.606425609106022421e+02	-7.350664748703331277e-07	-1.257194050274965313e+01
1.855964463421820983e+04	6.612511251396706484e+02	-7.337408760178711304e-07	-1.257118676455221973e+01
1.855966677707534109e+04	6.618465337919527656e+02	-7.324474212150439166e-07	-1.257043432916935188e+01
1.855968891993247234e+04	6.624287335198355322e+02	-7.311859869473928741e-07	-1.256968319051347294e+01
1.855971141993246056e+04	6.630067413630655437e+02	-7.299368784420176196e-07	-1.256892125875471855e+01
1.855973356278959182e+04	6.635621598772343077e+02	-7.287396228174410617e-07	-1.256817271610735887e+01
1.855975570564672307e+04	6.641042268903003105e+02	-7.275740089642288261e-07	-1.256742545204641637e+01
1.855977784850385433e+04	6.646329019959093785e+02	-7.264399077319528991e-07	-1.256667946062946406e+01
1.855980034850384254e+04	6.651563487127391454e+02	-7.253196582450287540e-07	-1.256592273460911535e+01
1.855982249136097380e+04	6.656579164451101178e+02	-7.242486881089283267e-07	-1.256517929108291121e+01
1.855984463421810506e+04	6.661459934371974896e+02	-7.232088261101155058e-07	-1.256443710249101819e+01
1.855986677707523631e+04	6.666205548505969318e+02	-7.221999327427546283e-07	-1.256369616303164527e+01
1.855988891993236757e+04	6.670815798389686506e+02	-7.212218657992701203e-07	-1.256295646693732060e+01
