# time(us)	tip(nm)	Fts(nN)	Xb(nm)
1.855557784850606549e+04	1.744463704659448240e+02	-7.135454934196201541e-06	-4.149587282557524759e+01
1.855560034850605371e+04	1.747931649151911699e+02	-7.112776462546278083e-06	-4.149331654916483814e+01
1.855562249136318496e+04	1.751310752354807505e+02	-7.090784003783344155e-06	-4.149080543311223579e+01
1.855564463422031622e+04	1.754655416586104195e+02	-7.069117217669084762e-06	-4.148829884307242821e+01
1.855566677707744748e+04	1.757964703846933787e+02	-7.047778484009968707e-06	-4.148579675744579731e+01
1.855568891993457873e+04	1.761237654161055843e+02	-7.026770290100196177e-06	-4.148329915476713126e+01
1.855571141993456695e+04	1.764525168326352400e+02	-7.005764465157688807e-06	-4.148076583819609198e+01
1.855573356279169820e+04	1.767721882394453417e+02	-6.985430478048173183e-06	-4.147827720899639559e+01
1.855575570564882946e+04	1.770879294763552991e+02	-6.965434780062344806e-06	-4.147579299880545989e+01
1.855577784850596072e+04	1.773996421099939766e+02	-6.945779891476435344e-06	-4.147331318668651079e+01
1.855580034850594529e+04	1.777121554470526235e+02	-6.926159593196332207e-06	-4.147079786121880574e+01
1.855582249136307655e+04	1.780154513624651997e+02	-6.907199093495922235e-06	-4.146832685304640620e+01
1.855584463422020781e+04	1.783144304180701454e+02	-6.888586338873322086e-06	-4.146586018057369216e+01
1.855586677707733907e+04	1.786090019331158487e+02	-6.870323298664680008e-06	-4.146339782337475555e+01
1.855588891993447032e+04	1.788990786014899470e+02	-6.852411729605539102e-06	-4.146093976114818958e+01
1.855591141993445854e+04	1.791891438514086872e+02	-6.834572848443171386e-06	-4.145844643141897734e+01
1.855593356279158979e+04	1.794699091488667761e+02	-6.817374245092817665e-06	-4.145599696718710447e+01
1.855595570564872105e+04	1.797459415976298089e+02	-6.800530892931115561e-06	-4.145355173743994470e+01
1.855597784850585231e+04	1.800171720571109404e+02	-6.784043482186472341e-06	-4.145111072236613126e+01
1.855600034850584052e+04	1.802877928024011851e+02	-6.767655144091086892e-06	-4.144863463299218864e+01
1.855602249136297178e+04	1.805491538794524615e+02	-6.751886222981674649e-06	-4.144620205549378511e+01
1.855604463422010303e+04	1.808055380959333149e+02	-6.736473477108878498e-06	-4.144377363363519606e+01
1.855606677707723429e+04	1.810568992133683537e+02	-6.721416360739504426e-06	-4.144134934807942017e+01
1.855608891993436555e+04	1.813031969653576994e+02	-6.706714021745058255e-06	-4.143892917960519640e+01
1.855611141993435376e+04	1.815482454203644807e+02	-6.692136768785697833e-06	-4.143647417370355868e+01
1.855613356279148502e+04	1.817842364704140721e+02	-6.678145911843448996e-06	-4.143406224782214053e+01
1.855615570564861628e+04	1.820150783179909695e+02	-6.664505502019686893e-06	-4.143165438174041526e+01
1.855617784850574753e+04	1.822407538086378338e+02	-6.651213568123050208e-06	-4.142925055669287815e+01
1.855620034850573575e+04	1.824647649459975014e+02	-6.638061927115999977e-06	-4.142681208039022778e+01
1.855622249136286700e+04	1.826799931941305886e+02	-6.625465638126293884e-06	-4.142441634598571909e+01
1.855624463421999826e+04	1.828900336665442978e+02	-6.613210549337057805e-06	-4.142202459668691716e+01
1.855626677707712952e+04	1.830948880775634109e+02	-6.601293890797217539e-06	-4.141963681417016829e+01
1.855628891993426078e+04	1.832945618090126629e+02	-6.589712760584723259e-06	-4.141725298021970758e+01
1.855631141993424899e+04	1.834921582245564196e+02	-6.578285433361913642e-06	-4.141483472329580451e+01
1.855633356279138025e+04	1.836814158321188302e+02	-6.567371563513530959e-06	-4.141245879521519413e+01
1.855635570564851150e+04	1.838655261810945092e+02	-6.556783974534145061e-06	-4.141008676140495481e+01
1.855637784850564276e+04	1.840445042837071412e+02	-6.546519540196889492e-06	-4.140771860407441807e+01
1.855640034850563097e+04	1.842211285938395804e+02	-6.536417368661459155e-06	-4.140531620321373651e+01
1.855642249136276223e+04	1.843898087862479258e+02	-6.526795071173262640e-06	-4.140295580769696215e+01
1.855644463421989349e+04	1.845534061754861170e+02	-6.517486754507029562e-06	-4.140059923562704824e+01
1.855646677707702474e+04	1.847119367489550257e+02	-6.508489560159191221e-06	-4.139824646962588872e+01
1.855648891993415600e+04	1.848654154462136887e+02	-6.499800766448349396e-06	-4.139589749241616090e+01
1.855651141993414421e+04	1.850162086686736984e+02	-6.491285097087706499e-06	-4.139351449173661734e+01
1.855653356279127547e+04	1.851595409474767280e+02	-6.483210483979863008e-06	-4.139117310109507741e+01
1.855655570564840673e+04	1.852978555290470410e+02	-6.475437129063842761e-06	-4.138883544773758416e+01
1.855657784850553799e+04	1.854311588337210992e+02	-6.467963084643269934e-06	-4.138650151478437778e+01
1.855660034850552620e+04	1.855614825534383101e+02	-6.460673320000096166e-06	-4.138413373136637574e+01
1.855662249136265746e+04	1.856846896257185620e+02	-6.453797773869545616e-06	-4.138180724830084500e+01
1.855664463421978871e+04	1.858028858269790078e+02	-6.447217135030154247e-06	-4.137948443531372789e+01
1.855666677707691997e+04	1.859160643958915671e+02	-6.440930458880170337e-06	-4.137716527591137350e+01
1.855668891993405123e+04	1.860242149830607730e+02	-6.434937062970241491e-06	-4.137484975369447682e+01
1.855671141993403944e+04	1.861289452866017200e+02	-6.429146979820952215e-06	-4.137250059320848550e+01
1.855673356279117070e+04	1.862269128092400479e+02	-6.423743855116325955e-06	-4.137019235454646804e+01
1.855675570564830196e+04	1.863197997242674830e+02	-6.418633506993176666e-06	-4.136788770417269490e+01
1.855677784850543321e+04	1.864075819007848338e+02	-6.413816256788388621e-06	-4.136558662606037728e+01
1.855680034850542143e+04	1.864915230921557168e+02	-6.409222096505782941e-06	-4.136325207652610203e+01
1.855682249136255268e+04	1.865689282999743455e+02	-6.404997632475244319e-06	-4.136095815219540839e+01
1.855684463421968394e+04	1.866411392509711789e+02	-6.401068508221889715e-06	-4.135866775233663617e+01
1.855686677707681520e+04	1.867081218822058588e+02	-6.397435823522482082e-06	-4.135638086128524549e+01
1.855688891993394645e+04	1.867698406434697347e+02	-6.394100817330288011e-06	-4.135409746346506665e+01
1.855691141993393467e+04	1.868271253055451382e+02	-6.391018332880897636e-06	-4.135178079889733027e+01
1.855693356279106592e+04	1.868781197345448959e+02	-6.388287685133900243e-06	-4.134950439688138601e+01
1.855695570564819718e+04	1.869237390115454218e+02	-6.385859026971932557e-06	-4.134723144164777153e+01
1.855697784850532844e+04	1.869639466651655937e+02	-6.383733882794657779e-06	-4.134496191797019549e+01
1.855700034850531665e+04	1.869992231901813398e+02	-6.381886926268873721e-06	-4.134265928850387439e+01
1.855702249136244791e+04	1.870284146174090267e+02	-6.380378300849363548e-06	-4.134039663733896219e+01
1.855704463421957917e+04	1.870520935659605186e+02	-6.379177652746732901e-06	-4.133813737232161145e+01
1.855706677707671042e+04	1.870702314970553175e+02	-6.378286317514345307e-06	-4.133588147856575290e+01
1.855708891993384168e+04	1.870828032124467200e+02	-6.377705510747824025e-06	-4.133362894126873499e+01
1.855711141993382989e+04	1.870898541206670131e+02	-6.377434517432678703e-06	-4.133134349566618226e+01
1.855713356279096115e+04	1.870911431635020392e+02	-6.377482846801335688e-06	-4.132909768075222701e+01
1.855715570564809241e+04	1.870868151889832518e+02	-6.377844377605646017e-06	-4.132685517814892506e+01
1.855717784850522366e+04	1.870768631771624939e+02	-6.378519587112344529e-06	-4.132461597338235038e+01
1.855720034850521188e+04	1.870609882882084207e+02	-6.379527241079246392e-06	-4.132234401563972170e+01
1.855722249136234313e+04	1.870396988992836214e+02	-6.380835332908899190e-06	-4.132011141605803317e+01
1.855724463421947439e+04	1.870127988474139897e+02	-6.382457037041111793e-06	-4.131788207114387745e+01
1.855726677707660201e+04	1.869803048232175513e+02	-6.384391785691764581e-06	-4.131565596674369800e+01
1.855728891993373327e+04	1.869422398694610763e+02	-6.386638723651466532e-06	-4.131343308878237508e+01
1.855731141993372148e+04	1.868978848834946973e+02	-6.389240502766682897e-06	-4.131117764845376428e+01
1.855733356279085274e+04	1.868486843373395061e+02	-6.392113064525944911e-06	-4.130896123293131694e+01
1.855735570564798400e+04	1.867940210412237150e+02	-6.395293465718036504e-06	-4.130674800186513096e+01
1.855737784850511525e+04	1.867339434248366103e+02	-6.398779684022776755e-06	-4.130453794148990454e+01
1.855740034850510347e+04	1.866674068374733224e+02	-6.402633018176504337e-06	-4.130229546869581725e+01
1.855742249136223472e+04	1.865965844922266683e+02	-6.406728538742677615e-06	-4.130009175929843934e+01
1.855744463421936598e+04	1.865205288518302780e+02	-6.411122149984343868e-06	-4.129789117953185240e+01
1.855746677707649724e+04	1.864393104215884875e+02	-6.415810801177142703e-06	-4.129569371593261451e+01
1.855748891993362849e+04	1.863530042415334265e+02	-6.420791230520724681e-06	-4.129349935511125125e+01
1.855751141993361671e+04	1.862601759885824038e+02	-6.426147311578882189e-06	-4.129127276590912743e+01
1.855753356279074796e+04	1.861638563449893411e+02	-6.431705348859956233e-06	-4.128908462027680315e+01
1.855755570564787922e+04	1.860626976325952739e+02	-6.437544296894297755e-06	-4.128689953748101260e+01
1.855757784850501048e+04	1.859567878296771255e+02	-6.443660304672394898e-06	-4.128471750442462707e+01
1.855760034850499869e+04	1.858443955539622436e+02	-6.450154715754081922e-06	-4.128250338779283624e+01
1.855762249136212995e+04	1.857291808792467407e+02	-6.456817341000730003e-06	-4.128032746387403051e+01
1.855764463421926121e+04	1.856094884503372953e+02	-6.463745103980167333e-06	-4.127815455062358296e+01
1.855766677707639246e+04	1.854854093933806780e+02	-6.470934061397647190e-06	-4.127598463522910777e+01
1.855768891993352372e+04	1.853570340142752002e+02	-6.478380331052380096e-06	-4.127381770494810098e+01
1.855771141993351193e+04	1.852222787428923709e+02	-6.486206372807145821e-06	-4.127161886884996989e+01
1.855773356279064319e+04	1.850855094820584554e+02	-6.494160032827975000e-06	-4.126945791848172718e+01
1.855775570564777445e+04	1.849447050734131608e+02	-6.502360002254733466e-06	-4.126729991521219887e+01
1.855777784850490571e+04	1.847999464538353322e+02	-6.510802974252333209e-06	-4.126514484657489845e+01
1.855780034850489392e+04	1.846488821505175792e+02	-6.519627858225964945e-06	-4.126295801201069935e+01
1.855782249136202518e+04	1.844963818765521921e+02	-6.528551622441791744e-06	-4.126080882234161606e+01
1.855784463421915643e+04	1.843401472564406731e+02	-6.537709853186925935e-06	-4.125866253011208329e+01
1.855786677707628769e+04	1.841802417530287244e+02	-6.547100279576107151e-06	-4.125651912312476099e+01
1.855788891993341895e+04	1.840167235734190285e+02	-6.556720943784569029e-06	-4.125437858924818357e+01
1.855791141993340716e+04	1.838469217093588952e+02	-6.566730942363685417e-06	-4.125220646120140344e+01
1.855793356279053842e+04	1.836762743061593710e+02	-6.576811196980205828e-06	-4.125007168326841622e+01
1.855795570564766967e+04	1.835021557947034694e+02	-6.587117828648992285e-06	-4.124793974225185167e+01
1.855797784850480093e+04	1.833246014472960610e+02	-6.597650267567894580e-06	-4.124581062628115546e+01
1.855800034850478914e+04	1.831406941961215011e+02	-6.608583670891486063e-06	-4.124365005133307704e+01
1.855802249136192040e+04	1.829562963043476884e+02	-6.619571103179208461e-06	-4.124152659518784958e+01
1.855804463421905166e+04	1.827685339576292165e+02	-6.630784804740991665e-06	-4.123940592867135990e+01
1.855806677707618292e+04	1.825774196860571408e+02	-6.642225637223814318e-06	-4.123728804016776195e+01
1.855808891993331417e+04	1.823829608581815478e+02	-6.653894799259767454e-06	-4.123517291812358110e+01
1.855811141993330239e+04	1.821819422658588508e+02	-6.665987624866427672e-06	-4.123302650312333384e+01
1.855813356279043364e+04	1.819807434250385256e+02	-6.678122068349670941e-06	-4.123091692374234185e+01
1.855815570564756490e+04	1.817761944094487774e+02	-6.690490337049890805e-06	-4.122881007634797612e+01
1.855817784850469616e+04	1.815682854883700088e+02	-6.703094808985865931e-06	-4.122670594963361879e+01
1.855820034850468437e+04	1.813535682972868415e+02	-6.716147221311485396e-06	-4.122457066066701259e+01
1.855822249136181563e+04	1.811388435171290610e+02	-6.729236076399343725e-06	-4.122247198506327948e+01
1.855824463421894689e+04	1.809207125308261652e+02	-6.742569631033987292e-06	-4.122037599640241012e+01
1.855826677707607814e+04	1.806991561344469233e+02	-6.756151045513210463e-06	-4.121828268361868908e+01
1.855828891993320940e+04	1.804741541163625129e+02	-6.769983600548105907e-06	-4.121619203570555356e+01
1.855831141993319761e+04	1.802419723143794954e+02	-6.784299981208605824e-06	-4.121407038608037965e+01
1.855833356279032887e+04	1.800099607171762273e+02	-6.798649173499395358e-06	-4.121198507766371932e+01
1.855835570564746013e+04	1.797744419462664496e+02	-6.813259814367740808e-06	-4.120990240127461135e+01
1.855837784850459138e+04	1.795353971612773591e+02	-6.828135354542314569e-06	-4.120782234614019757e+01
1.855840034850457960e+04	1.792888672924264597e+02	-6.843525684514284727e-06	-4.120571141570756168e+01
1.855842249136171085e+04	1.790426633105652456e+02	-6.858945623206454642e-06	-4.120363661283952439e+01
1.855844463421884211e+04	1.787928879726191553e+02	-6.874640555695424264e-06	-4.120156439907989210e+01
1.855846677707597337e+04	1.785395314120530657e+02	-6.890613637840930032e-06	-4.119949476388399745e+01
1.855848891993310463e+04	1.782825868996012844e+02	-6.906867892557369586e-06	-4.119742769676324201e+01
1.855851141993309284e+04	1.780178194814183428e+02	-6.923675280637618021e-06	-4.119532990964631125e+01
1.855853356279022410e+04	1.777536347789528861e+02	-6.940504973216407618e-06	-4.119326798843253812e+01
1.855855570564735535e+04	1.774858631853505528e+02	-6.957623977088206770e-06	-4.119120860399464590e+01
1.855857784850448661e+04	1.772145126232645680e+02	-6.975034624647274151e-06	-4.118915174606566154e+01
1.855860034850447482e+04	1.769351315703722491e+02	-6.993027027718632600e-06	-4.118706429045430184e+01
1.855862249136160608e+04	1.766566051195191278e+02	-7.011031965663378518e-06	-4.118501249529745678e+01
1.855864463421873734e+04	1.763745467794215642e+02	-7.029334402488382091e-06	-4.118296319601054734e+01
1.855866677707586859e+04	1.760889795171453613e+02	-7.047935895424145161e-06	-4.118091638254283282e+01
1.855868891993299985e+04	1.757999296514982746e+02	-7.066837823432342901e-06	-4.117887204489665010e+01
1.855871141993298806e+04	1.755026806665401011e+02	-7.086353613645702328e-06	-4.117679725986383232e+01
1.855873356279011568e+04	1.752067016495133203e+02	-7.105864796608982600e-06	-4.117475788361047506e+01
1.855875570564724694e+04	1.749073367058706481e+02	-7.125679647782670079e-06	-4.117272095334282511e+01
1.855877784850437820e+04	1.746046223842215284e+02	-7.145799000621036108e-06	-4.117068645927331261e+01
1.855880034850436641e+04	1.742936339323479160e+02	-7.166555546641121376e-06	-4.116862163621239290e+01
1.855882249136149767e+04	1.739842836321276422e+02	-7.187291067120148750e-06	-4.116659202428349573e+01
1.855884463421862893e+04	1.736717013854403433e+02	-7.208333262195118104e-06	-4.116456481934308442e+01
1.855886677707576018e+04	1.733559268114314875e+02	-7.229682846548611624e-06	-4.116254001180878674e+01
1.855888891993289144e+04	1.730369989782422238e+02	-7.251340590575443264e-06	-4.116051759214850136e+01
1.855891141993287965e+04	1.727097362874055477e+02	-7.273664198003391797e-06	-4.115846498900747719e+01
1.855893356279001091e+04	1.723845648337322984e+02	-7.295945992398905793e-06	-4.115644735483117955e+01
1.855895570564714217e+04	1.720563491038405175e+02	-7.318538990137238484e-06	-4.115443208008105103e+01
1.855897784850427342e+04	1.717251205033785482e+02	-7.341444569105602903e-06	-4.115241915542439699e+01
1.855900034850426164e+04	1.713854923781277648e+02	-7.365041453218348281e-06	-4.115037616193666992e+01
1.855902249136139289e+04	1.710482713959953003e+02	-7.388582475960524280e-06	-4.114836794719459334e+01
1.855904463421852415e+04	1.707081109748690722e+02	-7.412441893169646927e-06	-4.114636205469226127e+01
1.855906677707565541e+04	1.703650269464911560e+02	-7.436622304185320322e-06	-4.114435847529161094e+01
1.855908891993278667e+04	1.700190302817881616e+02	-7.461126699591292516e-06	-4.114235719990238493e+01
1.855911141993277488e+04	1.696644755064602919e+02	-7.486361707892714408e-06	-4.114032599661886280e+01
1.855913356278990614e+04	1.693126186968132743e+02	-7.511530134989701498e-06	-4.113832933896858890e+01
1.855915570564703739e+04	1.689578501617798452e+02	-7.537034228931256898e-06	-4.113633495819897234e+01
1.855917784850416865e+04	1.686001589150718303e+02	-7.562878827188128138e-06	-4.113434284540893771e+01
1.855920034850415686e+04	1.682336873652834868e+02	-7.589494571407238014e-06	-4.113232091579390470e+01
1.855922249136128812e+04	1.678700466427367815e+02	-7.616042474970732082e-06	-4.113033334866866397e+01
1.855924463421841938e+04	1.675034151652872936e+02	-7.642948621768582660e-06	-4.112834802295622438e+01
1.855926677707555064e+04	1.671337590277447305e+02	-7.670219966650372714e-06	-4.112636492994039372e+01
1.855928891993268189e+04	1.667610389495448544e+02	-7.697864002957943537e-06	-4.112438406095020582e+01
1.855931141993267011e+04	1.663791230475498253e+02	-7.726343936642790608e-06	-4.112237351169932253e+01
1.855933356278980136e+04	1.660000857364649391e+02	-7.754764315400257055e-06	-4.112039710045184648e+01
1.855935570564693262e+04	1.656178363610466704e+02	-7.783583181913198269e-06	-4.111842288734966644e+01
1.855937784850406388e+04	1.652323172289739830e+02	-7.812810104615512788e-06	-4.111645086390156933e+01
1.855940034850405209e+04	1.648371677015922216e+02	-7.842936754224029238e-06	-4.111444926783906340e+01
1.855942249136118335e+04	1.644448670941750095e+02	-7.873017364246509179e-06	-4.111248163337799610e+01
1.855944463421831460e+04	1.640491035086000124e+02	-7.903537651279978382e-06	-4.111051616322621527e+01
1.855946677707544586e+04	1.636498083564737556e+02	-7.934508918256822469e-06	-4.110855284906802609e+01
1.855948891993257712e+04	1.632469117873660025e+02	-7.965942819936880950e-06	-4.110659168263078556e+01
1.855951141993256533e+04	1.628337552772598826e+02	-7.998369934941317811e-06	-4.110460107596300361e+01
1.855953356278969659e+04	1.624233834637109624e+02	-8.030773241793227790e-06	-4.110264421462991891e+01
1.855955570564682785e+04	1.620091982659924383e+02	-8.063676075837563235e-06	-4.110068947632499459e+01
1.855957784850395910e+04	1.615911311087340039e+02	-8.097091107364554489e-06	-4.109873685294619605e+01
1.855960034850394732e+04	1.611622758905263879e+02	-8.131582946740128885e-06	-4.109675489371033308e+01
1.855962249136107857e+04	1.607361820396696430e+02	-8.166069709769350460e-06	-4.109480650983196171e+01
1.855964463421820983e+04	1.603060133067012885e+02	-8.201107596632409359e-06	-4.109286021669566225e+01
1.855966677707534109e+04	1.598717122764441001e+02	-8.236709604209953165e-06	-4.109091600636625685e+01
1.855968891993247234e+04	1.594332256782354023e+02	-8.272888704550481335e-06	-4.108897387094940257e+01
1.855971141993246056e+04	1.589833292498233561e+02	-8.310255760784824631e-06	-4.108700252806207232e+01
1.855973356278959182e+04	1.585362612455943747e+02	-8.347637494581481533e-06	-4.108506455209994357e+01
1.855975570564672307e+04	1.580848765893702819e+02	-8.385634906766352222e-06	-4.108312862748580585e+01
1.855977784850385433e+04	1.576291428577971772e+02	-8.424260495260176671e-06	-4.108119474648749758e+01
1.855980034850384254e+04	1.571615764999012299e+02	-8.464165199938342957e-06	-4.107923175926239168e+01
1.855982249136097380e+04	1.566970003659667441e+02	-8.504094445336325968e-06	-4.107730197510966974e+01
1.855984463421810506e+04	1.562280141970410057e+02	-8.544688274498899160e-06	-4.107537421149162782e+01
1.855986677707523631e+04	1.557546104114393017e+02	-8.585958263858395413e-06	-4.107344846083459800e+01
1.855988891993236757e+04	1.552767877623402910e+02	-8.627915721220441779e-06	-4.107152471560379325e+01
