# time(us)	tip(nm)	Fts(nN)	Xb(nm)
1.855557784850606549e+04	6.629347290079391541e+01	-2.710705141039520077e-05	-4.440025409569064863e+01
1.855560034850605371e+04	6.643292477115267047e+01	-2.704025669742463715e-05	-4.439764032893931045e+01
1.855562249136318496e+04	6.656773959849755329e+01	-2.697593691803626214e-05	-4.439507239619782553e+01
1.855564463422031622e+04	6.670012925003459259e+01	-2.691301701796571907e-05	-4.439250875432212240e+01
1.855566677707744748e+04	6.683007049199737537e+01	-2.685149483358456338e-05	-4.438994938352019659e+01
1.855568891993457873e+04	6.695753771040968161e+01	-2.679136954140450078e-05	-4.438739426411727607e+01
1.855571141993456695e+04	6.708449776415879739e+01	-2.673170590018898493e-05	-4.438480226777834048e+01
1.855573356279169820e+04	6.720688927279887537e+01	-2.667439988682914081e-05	-4.438225566039740499e+01
1.855575570564882946e+04	6.732671482818611253e+01	-2.661849636870094150e-05	-4.437971324577556942e+01
1.855577784850596072e+04	6.744393920586982460e+01	-2.656399978342081938e-05	-4.437717500470026266e+01
1.855580034850594529e+04	6.756035130153765067e+01	-2.651007117606013440e-05	-4.437460007964614306e+01
1.855582249136307655e+04	6.767221547684944483e+01	-2.645842940230328221e-05	-4.437207019502297811e+01
1.855584463422020781e+04	6.778135958382210902e+01	-2.640821480865751376e-05	-4.436954442667908438e+01
1.855586677707733907e+04	6.788774066389539996e+01	-2.635943606019066154e-05	-4.436702275585014377e+01
1.855588891993447032e+04	6.799131440967332196e+01	-2.631210259854891413e-05	-4.436450516388132570e+01
1.855591141993445854e+04	6.809363636348517446e+01	-2.626549652190632007e-05	-4.436195112456432810e+01
1.855593356279158979e+04	6.819141149176087424e+01	-2.622110811511410580e-05	-4.435944169982636254e+01
1.855595570564872105e+04	6.828624060483197411e+01	-2.617819676392551875e-05	-4.435693629833824758e+01
1.855597784850585231e+04	6.837807720896378783e+01	-2.613677358260163086e-05	-4.435443490187685001e+01
1.855600034850584052e+04	6.846828225210278163e+01	-2.609621811972842747e-05	-4.435189724409704581e+01
1.855602249136297178e+04	6.855394611320906506e+01	-2.605782898648665230e-05	-4.434940386730831818e+01
1.855604463422010303e+04	6.863648106569050356e+01	-2.602096099584570358e-05	-4.434691444121886406e+01
1.855606677707723429e+04	6.871584449015111318e+01	-2.598562434102287747e-05	-4.434442894802460700e+01
1.855608891993436555e+04	6.879199572997040946e+01	-2.595182857379800886e-05	-4.434194737002395925e+01
1.855611141993435376e+04	6.886604546302554297e+01	-2.591907509128949649e-05	-4.433942975887251237e+01
1.855613356279148502e+04	6.893560687388463748e+01	-2.588841158626338623e-05	-4.433695602099981414e+01
1.855615570564861628e+04	6.900184923872015474e+01	-2.585931233370290485e-05	-4.433448614554355771e+01
1.855617784850574753e+04	6.906474355887274896e+01	-2.583178279740519845e-05	-4.433202011520624097e+01
1.855620034850573575e+04	6.912519683428816109e+01	-2.580542136463209778e-05	-4.432951823112096434e+01
1.855622249136286700e+04	6.918126844211950299e+01	-2.578106758459408233e-05	-4.432705990084910042e+01
1.855624463421999826e+04	6.923392836150914320e+01	-2.575829139464622203e-05	-4.432460536412055774e+01
1.855626677707712952e+04	6.928316423007764513e+01	-2.573709223197357196e-05	-4.432215460403055829e+01
1.855628891993426078e+04	6.932896836540234631e+01	-2.571746783118943863e-05	-4.431970760377045337e+01
1.855631141993424899e+04	6.937199314068782030e+01	-2.569913582926985495e-05	-4.431722496983536530e+01
1.855633356279138025e+04	6.941087480316339509e+01	-2.568267230036036389e-05	-4.431478549915908616e+01
1.855635570564851150e+04	6.944633107201879341e+01	-2.566776597695314367e-05	-4.431234973819056222e+01
1.855637784850564276e+04	6.947837400183087198e+01	-2.565440743209992472e-05	-4.430991767050031171e+01
1.855640034850563097e+04	6.950745489950161016e+01	-2.564240730689966371e-05	-4.430745014220021005e+01
1.855642249136276223e+04	6.953267272417102163e+01	-2.563213342374986005e-05	-4.430502547105903943e+01
1.855644463421989349e+04	6.955454303595303145e+01	-2.562336828682799049e-05	-4.430260444420163424e+01
1.855646677707702474e+04	6.957309700440788447e+01	-2.561609562029659287e-05	-4.430018704556719911e+01
1.855648891993415600e+04	6.958837013605067057e+01	-2.561029761758316648e-05	-4.429777325918509234e+01
1.855651141993414421e+04	6.960056976253520133e+01	-2.560589681524526846e-05	-4.429532422452564333e+01
1.855653356279127547e+04	6.960935260963287874e+01	-2.560301208063599311e-05	-4.429291767271671176e+01
1.855655570564840673e+04	6.961498529013665859e+01	-2.560154011626924282e-05	-4.429051468553109316e+01
1.855657784850553799e+04	6.961751788801981888e+01	-2.560145811080489676e-05	-4.428811524735450433e+01
1.855660034850552620e+04	6.961697028715094859e+01	-2.560277412634349585e-05	-4.428568072790603338e+01
1.855662249136265746e+04	6.961341586684228844e+01	-2.560542159011322571e-05	-4.428328839786946958e+01
1.855664463421978871e+04	6.960692759329694468e+01	-2.560938538916415606e-05	-4.428089957027314227e+01
1.855666677707691997e+04	6.959756424741381409e+01	-2.561464005962155117e-05	-4.427851422984949181e+01
1.855668891993405123e+04	6.958538573070373445e+01	-2.562115989559775995e-05	-4.427613236141594655e+01
1.855671141993403944e+04	6.957018954282405332e+01	-2.562905428495089162e-05	-4.427371561664284627e+01
1.855673356279117070e+04	6.955251978195745721e+01	-2.563804659441258407e-05	-4.427134070237024588e+01
1.855675570564830196e+04	6.953221798391096797e+01	-2.564822681237642206e-05	-4.426896921480366842e+01
1.855677784850543321e+04	6.950934428025402667e+01	-2.565956998311316360e-05	-4.426660113909605343e+01
1.855680034850542143e+04	6.948352811421746367e+01	-2.567226226857926779e-05	-4.426419834826149469e+01
1.855682249136255268e+04	6.945564765505676519e+01	-2.568587682338088562e-05	-4.426183710649331005e+01
1.855684463421968394e+04	6.942536935786449703e+01	-2.570058330237862186e-05	-4.425947923229838210e+01
1.855686677707681520e+04	6.939274735517081183e+01	-2.571636003979259198e-05	-4.425712471115617319e+01
1.855688891993394645e+04	6.935783349079649440e+01	-2.573318651807410010e-05	-4.425477352862620961e+01
1.855691141993393467e+04	6.932005965306503015e+01	-2.575133983326568905e-05	-4.425238782882767197e+01
1.855693356279106592e+04	6.928067215956394875e+01	-2.577022554227750058e-05	-4.425004333378817023e+01
1.855695570564819718e+04	6.923913293779096989e+01	-2.579010706234715920e-05	-4.424770213428595156e+01
1.855697784850532844e+04	6.919548247323201906e+01	-2.581096940379235861e-05	-4.424536421619670534e+01
1.855700034850531665e+04	6.914900378863039521e+01	-2.583315905267608091e-05	-4.424299193651442152e+01
1.855702249136244791e+04	6.910120692391112129e+01	-2.585595951192399823e-05	-4.424066059154763053e+01
1.855704463421957917e+04	6.905140155518012079e+01	-2.587970489796582766e-05	-4.423833248586029754e+01
1.855706677707671042e+04	6.899961528631092733e+01	-2.590438642266713393e-05	-4.423600760563618906e+01
1.855708891993384168e+04	6.894587258982296873e+01	-2.592999681592805071e-05	-4.423368593713464492e+01
1.855711141993382989e+04	6.888928114025178218e+01	-2.595696577808859201e-05	-4.423133009813727057e+01
1.855713356279096115e+04	6.883165629833806065e+01	-2.598443271860075227e-05	-4.422901486340987987e+01
1.855715570564809241e+04	6.877213118280798199e+01	-2.601281525726209737e-05	-4.422670279941392124e+01
1.855717784850522366e+04	6.871071916749194486e+01	-2.604211160780720328e-05	-4.422439389270716958e+01
1.855720034850521188e+04	6.864639530855197336e+01	-2.607281585604211827e-05	-4.422205096588798057e+01
1.855722249136234313e+04	6.858121092681506070e+01	-2.610395365003719795e-05	-4.421974838411038178e+01
1.855724463421947439e+04	6.851416759652464350e+01	-2.613600627650413923e-05	-4.421744891951968270e+01
1.855726677707660201e+04	6.844527144765379489e+01	-2.616897577415353921e-05	-4.421515255896458996e+01
1.855728891993373327e+04	6.837452757127628900e+01	-2.620286479615099133e-05	-4.421285928936517706e+01
1.855731141993372148e+04	6.830075450295204575e+01	-2.623824552016104780e-05	-4.421053218428855303e+01
1.855733356279085274e+04	6.822629829942789570e+01	-2.627399823221165392e-05	-4.420824510697387666e+01
1.855735570564798400e+04	6.815000677021032516e+01	-2.631068068164359855e-05	-4.420596108159168836e+01
1.855737784850511525e+04	6.807188415527770076e+01	-2.634829647827990705e-05	-4.420368009534408316e+01
1.855740034850510347e+04	6.799063086115027943e+01	-2.638747860369000805e-05	-4.420136541894490989e+01
1.855742249136223472e+04	6.790883218443104852e+01	-2.642698640727247008e-05	-4.419909052135431438e+01
1.855744463421936598e+04	6.782522004956281592e+01	-2.646743702035890574e-05	-4.419681862471523459e+01
1.855746677707649724e+04	6.773980285158312142e+01	-2.650883264708531458e-05	-4.419454971650477404e+01
1.855748891993362849e+04	6.765259066891965745e+01	-2.655117481944522617e-05	-4.419228378426758042e+01
1.855751141993361671e+04	6.756214552519747940e+01	-2.659517027045189448e-05	-4.418998434033835565e+01
1.855753356279074796e+04	6.747135292969117870e+01	-2.663942218860679818e-05	-4.418772437044970758e+01
1.855755570564787922e+04	6.737880785188542632e+01	-2.668462018357061678e-05	-4.418546733937163395e+01
1.855757784850501048e+04	6.728452885687596563e+01	-2.673076214706401955e-05	-4.418321323491546337e+01
1.855760034850499869e+04	6.718697470336738320e+01	-2.677861199315758405e-05	-4.418092575925922461e+01
1.855762249136212995e+04	6.708926599679182345e+01	-2.682664634654394436e-05	-4.417867751845733437e+01
1.855764463421926121e+04	6.698989373144780757e+01	-2.687561176418524158e-05	-4.417643216790942517e+01
1.855766677707639246e+04	6.688888593543779848e+01	-2.692550176302517604e-05	-4.417418969568710452e+01
1.855768891993352372e+04	6.678627284597239111e+01	-2.697630879214387711e-05	-4.417195008992585770e+01
1.855771141993351193e+04	6.668039364667318125e+01	-2.702886579320024833e-05	-4.416967728552204164e+01
1.855773356279064319e+04	6.657464426082593434e+01	-2.708149462569304841e-05	-4.416744342310054350e+01
1.855775570564777445e+04	6.646739257120476907e+01	-2.713501181232553201e-05	-4.416521239173791002e+01
1.855777784850490571e+04	6.635867592400597914e+01	-2.718940616914492132e-05	-4.416298417982216762e+01
1.855780034850489392e+04	6.624674484821125020e+01	-2.724556416974465421e-05	-4.416072290513618981e+01
1.855782249136202518e+04	6.613519260494598484e+01	-2.730169049756486213e-05	-4.415850034253502798e+01
1.855784463421915643e+04	6.602229379530476194e+01	-2.735865687768303345e-05	-4.415628056473094887e+01
1.855786677707628769e+04	6.590808848072747139e+01	-2.741645037771879882e-05	-4.415406356035845903e+01
1.855788891993341895e+04	6.579261653020964218e+01	-2.747505803238797410e-05	-4.415184931811246827e+01
1.855791141993340716e+04	6.567402515283332320e+01	-2.753543173238124969e-05	-4.414960218001313308e+01
1.855793356279053842e+04	6.555611800956272361e+01	-2.759564221036823415e-05	-4.414739347244230316e+01
1.855795570564766967e+04	6.543705947280386681e+01	-2.765662941807197771e-05	-4.414518749326294511e+01
1.855797784850480093e+04	6.531688479927765911e+01	-2.771838215683788042e-05	-4.414298423140923688e+01
1.855800034850478914e+04	6.519366266901350571e+01	-2.778190449330314549e-05	-4.414074820515951103e+01
1.855802249136192040e+04	6.507133596577244816e+01	-2.784517060129892491e-05	-4.413855038837807854e+01
1.855804463421905166e+04	6.494798523567874327e+01	-2.790917492733858507e-05	-4.413635525590023434e+01
1.855806677707618292e+04	6.482363512856078103e+01	-2.797391121065016529e-05	-4.413416279689366917e+01
1.855808891993331417e+04	6.469830683033679009e+01	-2.803937489157463909e-05	-4.413197300058334349e+01
1.855811141993330239e+04	6.456997307178721712e+01	-2.810663676969095637e-05	-4.412975060140291816e+01
1.855813356279043364e+04	6.444272154388841045e+01	-2.817356090005548316e-05	-4.412756614090254459e+01
1.855815570564756490e+04	6.431453209434252472e+01	-2.824121064881407871e-05	-4.412538431094338165e+01
1.855817784850469616e+04	6.418540953230649393e+01	-2.830958988117850966e-05	-4.412320510097721638e+01
1.855820034850468437e+04	6.405324882653134466e+01	-2.837982571478982397e-05	-4.412099341537852837e+01
1.855822249136181563e+04	6.392224115205527113e+01	-2.844969737873698402e-05	-4.411881945581099984e+01
1.855824463421894689e+04	6.379028721164115723e+01	-2.852032520008528972e-05	-4.411664808475731547e+01
1.855826677707607814e+04	6.365737330796910953e+01	-2.859172324556033911e-05	-4.411447929189070294e+01
1.855828891993320940e+04	6.352348112132246172e+01	-2.866390825197431794e-05	-4.411231306693877485e+01
1.855831141993319761e+04	6.338640374451754411e+01	-2.873808364102050628e-05	-4.411011452272744293e+01
1.855833356279032887e+04	6.325046516226905879e+01	-2.881191703803716398e-05	-4.410795344400972340e+01
1.855835570564746013e+04	6.311346609680700936e+01	-2.888660402069435641e-05	-4.410579490254973223e+01
1.855837784850459138e+04	6.297537092136225567e+01	-2.896217191049476575e-05	-4.410363888829019885e+01
1.855840034850457960e+04	6.283388502481430749e+01	-2.903989168312887182e-05	-4.410145067797548535e+01
1.855842249136171085e+04	6.269345649038591972e+01	-2.911732870142275554e-05	-4.409929972851384150e+01
1.855844463421884211e+04	6.255180261131343400e+01	-2.919574369422217944e-05	-4.409715127623693576e+01
1.855846677707597337e+04	6.240887437014707473e+01	-2.927517330752805425e-05	-4.409500531129751266e+01
1.855848891993310463e+04	6.226462027154841650e+01	-2.935565616760594357e-05	-4.409286182390000874e+01
1.855851141993309284e+04	6.211662619776646466e+01	-2.943855765562484171e-05	-4.409068629189494715e+01
1.855853356279022410e+04	6.196953435233952234e+01	-2.952128862782375996e-05	-4.408854776996680158e+01
1.855855570564735535e+04	6.182095035565026109e+01	-2.960519957776555722e-05	-4.408641169634494617e+01
1.855857784850448661e+04	6.167081683691579030e+01	-2.969033527379122839e-05	-4.408427806143794214e+01
1.855860034850447482e+04	6.151661510639402053e+01	-2.977814583109414379e-05	-4.408211250127199321e+01
1.855862249136160608e+04	6.136318194520409008e+01	-2.986589086601074833e-05	-4.407998375416972436e+01
1.855864463421873734e+04	6.120802555852127114e+01	-2.995500105779792308e-05	-4.407785741715524352e+01
1.855866677707586859e+04	6.105108954852511971e+01	-3.004552403641789143e-05	-4.407573348083649023e+01
1.855868891993299985e+04	6.089231878676733345e+01	-3.013750761882461895e-05	-4.407361193587028225e+01
1.855871141993298806e+04	6.072905275706464323e+01	-3.023252016587678329e-05	-4.407145861238429774e+01
1.855873356279011568e+04	6.056642234922365020e+01	-3.032759363908866431e-05	-4.406934186048393798e+01
1.855875570564724694e+04	6.040180229503518916e+01	-3.042427107131258820e-05	-4.406722747204971569e+01
1.855877784850437820e+04	6.023514610236777855e+01	-3.052259909099393946e-05	-4.406511543793233443e+01
1.855880034850436641e+04	6.006367134805216068e+01	-3.062425105409637258e-05	-4.406297174095774238e+01
1.855882249136149767e+04	5.989278066107434029e+01	-3.072604555659707936e-05	-4.406086442582196838e+01
1.855884463421862893e+04	5.971973196645235049e+01	-3.082962635406609237e-05	-4.405875943769435565e+01
1.855886677707576018e+04	5.954449156804826515e+01	-3.093503639511058635e-05	-4.405665676761493188e+01
1.855888891993289144e+04	5.936702932044297398e+01	-3.104231745387573272e-05	-4.405455640667025108e+01
1.855891141993287965e+04	5.918440157745538244e+01	-3.115328712194096014e-05	-4.405242452510577778e+01
1.855893356279001091e+04	5.900238286793306486e+01	-3.126446233389717718e-05	-4.405032879276151192e+01
1.855895570564714217e+04	5.881807331188473853e+01	-3.137762693558789089e-05	-4.404823534294659027e+01
1.855897784850427342e+04	5.863145723127082931e+01	-3.149281759005092098e-05	-4.404614416693166845e+01
1.855900034850426164e+04	5.843945600458619793e+01	-3.161197794986217647e-05	-4.404402158243522081e+01
1.855902249136139289e+04	5.824815589144694172e+01	-3.173135980105194699e-05	-4.404193496433655497e+01
1.855904463421852415e+04	5.805452224023893137e+01	-3.185287091305980840e-05	-4.403985059398134894e+01
1.855906677707565541e+04	5.785855223000808678e+01	-3.197654331142691525e-05	-4.403776846282004698e+01
1.855908891993278667e+04	5.766024572286405458e+01	-3.210240810842510432e-05	-4.403568856234725359e+01
1.855911141993277488e+04	5.745634975305600278e+01	-3.223257994674165043e-05	-4.403357739132589188e+01
1.855913356278990614e+04	5.725334169776326121e+01	-3.236295649845429294e-05	-4.403150196252723703e+01
1.855915570564703739e+04	5.704801019696927256e+01	-3.249561523407266462e-05	-4.402942873902873799e+01
1.855917784850416865e+04	5.684036302411337260e+01	-3.263058515238776417e-05	-4.402735771249981411e+01
1.855920034850415686e+04	5.662700392565874097e+01	-3.277012920457944881e-05	-4.402525552419041333e+01
1.855922249136128812e+04	5.641471613461597201e+01	-3.290984689975629663e-05	-4.402318890188158917e+01
1.855924463421841938e+04	5.620014187964016372e+01	-3.305196372711076132e-05	-4.402112445167542631e+01
1.855926677707555064e+04	5.598329163758159410e+01	-3.319650973395883725e-05	-4.401906216541232908e+01
1.855928891993268189e+04	5.576417573575280784e+01	-3.334351578406118864e-05	-4.401700203497470909e+01
1.855931141993267011e+04	5.553921509798506406e+01	-3.349544564301232350e-05	-4.401491087657304035e+01
1.855933356278980136e+04	5.531556056544081912e+01	-3.364750977208108606e-05	-4.401285506804602221e+01
1.855935570564693262e+04	5.508966757811842996e+01	-3.380213425294028667e-05	-4.401080139111233791e+01
1.855937784850406388e+04	5.486154294284946076e+01	-3.395935546831740389e-05	-4.400874983782064476e+01
1.855940034850405209e+04	5.462745841746286857e+01	-3.412181183989613825e-05	-4.400666736210990848e+01
1.855942249136118335e+04	5.439484893232673102e+01	-3.428438695661169716e-05	-4.400462006634422352e+01
1.855944463421831460e+04	5.416001858299120642e+01	-3.444968080268916833e-05	-4.400257487048406091e+01
1.855946677707544586e+04	5.392296720222778816e+01	-3.461773846854670637e-05	-4.400053176674038724e+01
1.855948891993257712e+04	5.368369259530546600e+01	-3.478860760000421795e-05	-4.399849074736420107e+01
1.855951141993256533e+04	5.343827701913341599e+01	-3.496516436393514284e-05	-4.399641893544815474e+01
1.855953356278969659e+04	5.319450501113976770e+01	-3.514185759959839977e-05	-4.399438209502606867e+01
1.855955570564682785e+04	5.294849067154234490e+01	-3.532152252466065487e-05	-4.399234731583850788e+01
1.855957784850395910e+04	5.270022365821146337e+01	-3.550421796125589365e-05	-4.399031459029431801e+01
1.855960034850394732e+04	5.244563232768974359e+01	-3.569302788274559017e-05	-4.398825117467212920e+01
1.855962249136107857e+04	5.219278489604294435e+01	-3.588202379677215610e-05	-4.398622256661511898e+01
1.855964463421820983e+04	5.193764317672407316e+01	-3.607424503040049094e-05	-4.398419598953963572e+01
1.855966677707534109e+04	5.168019055885780944e+01	-3.626976180383315859e-05	-4.398217143600903256e+01
1.855968891993247234e+04	5.142040943259988239e+01	-3.646864700568395058e-05	-4.398014889862455590e+01
1.855971141993246056e+04	5.115403426897103856e+01	-3.667426809005638167e-05	-4.397809579727501728e+01
1.855973356278959182e+04	5.088950243812440988e+01	-3.688017630694141692e-05	-4.397607730235905876e+01
1.855975570564672307e+04	5.062258593576843424e+01	-3.708968759509419428e-05	-4.397406080150121710e+01
1.855977784850385433e+04	5.035326623326032802e+01	-3.730288408303576584e-05	-4.397204628745294031e+01
1.855980034850384254e+04	5.007712258677658212e+01	-3.752338051533441740e-05	-4.397000130895196435e+01
1.855982249136097380e+04	4.980290435354679346e+01	-3.774426369308940765e-05	-4.396799077867916594e+01
1.855984463421810506e+04	4.952623238338649259e+01	-3.796908979859871426e-05	-4.396598221357592706e+01
1.855986677707523631e+04	4.924709293542046851e+01	-3.819794676006806251e-05	-4.396397560654054359e+01
1.855988891993236757e+04	4.896547438358079773e+01	-3.843092328538648210e-05	-4.396197095050741410e+01
