# time(us)	tip(nm)	Fts(nN)	Xb(nm)
1.855557784850606549e+04	2.247643305997855521e+02	-4.744819900303881177e-06	-4.009418158070539562e+01
1.855560034850605371e+04	2.252334659724368748e+02	-4.728156069671331727e-06	-4.009164815706543550e+01
1.855562249136318496e+04	2.256915997293014868e+02	-4.711968097846798053e-06	-4.008915968128329155e+01
1.855564463422031622e+04	2.261462097478757016e+02	-4.695987169400084107e-06	-4.008667587936698595e+01
1.855566677707744748e+04	2.265972914951540531e+02	-4.680210985059833592e-06	-4.008419672854822835e+01
1.855568891993457873e+04	2.270448327075176280e+02	-4.664637556922497290e-06	-4.008172220620538440e+01
1.855571141993456695e+04	2.274959447248432980e+02	-4.649018910804634784e-06	-4.007921249012282772e+01
1.855573356279169820e+04	2.279362774973752153e+02	-4.633849503341278153e-06	-4.007674723119457383e+01
1.855575570564882946e+04	2.283729831942441706e+02	-4.618878762256245023e-06	-4.007428653338691049e+01
1.855577784850596072e+04	2.288060162398200532e+02	-4.604105954951082361e-06	-4.007183037465371456e+01
1.855580034850594529e+04	2.292422160840956167e+02	-4.589297179221587503e-06	-4.006933922737925968e+01
1.855582249136307655e+04	2.296676719725456053e+02	-4.574922408869130336e-06	-4.006689215354438005e+01
1.855584463422020781e+04	2.300892675431204566e+02	-4.560745123485982305e-06	-4.006444955313313727e+01
1.855586677707733907e+04	2.305069247204537248e+02	-4.546765711396979833e-06	-4.006201140465443444e+01
1.855588891993447032e+04	2.309205581504880627e+02	-4.532984799016742527e-06	-4.005957768675224884e+01
1.855591141993445854e+04	2.313366465544675350e+02	-4.519185811463834562e-06	-4.005710923182517291e+01
1.855593356279158979e+04	2.317418810500251141e+02	-4.505807865556037494e-06	-4.005468438214921889e+01
1.855595570564872105e+04	2.321427956600920197e+02	-4.492631530681519963e-06	-4.005226389944402854e+01
1.855597784850585231e+04	2.325392815116010752e+02	-4.479658162438504009e-06	-4.004984776288461745e+01
1.855600034850584052e+04	2.329375094535560606e+02	-4.466684967674573800e-06	-4.004739708692811462e+01
1.855602249136297178e+04	2.333247194633623565e+02	-4.454125379651940191e-06	-4.004498964996757593e+01
1.855604463422010303e+04	2.337071507973136875e+02	-4.441773449646006737e-06	-4.004258649712105722e+01
1.855606677707723429e+04	2.340846831097098573e+02	-4.429630840451128871e-06	-4.004018760807667121e+01
1.855608891993436555e+04	2.344571953614770052e+02	-4.417699222199398335e-06	-4.003779296264730192e+01
1.855611141993435376e+04	2.348304492667996612e+02	-4.405792981031089578e-06	-4.003536402007866002e+01
1.855613356279148502e+04	2.351924741400609093e+02	-4.394291718564255479e-06	-4.003297786945073256e+01
1.855615570564861628e+04	2.355491186851852774e+02	-4.383006259696524668e-06	-4.003059590229789677e+01
1.855617784850574753e+04	2.359002679742031034e+02	-4.371938041453691016e-06	-4.002821809892488147e+01
1.855620034850573575e+04	2.362513374552421794e+02	-4.360915186668481648e-06	-4.002580618878366181e+01
1.855622249136286700e+04	2.365910738009858960e+02	-4.350288823668322857e-06	-4.002343672073238423e+01
1.855624463421999826e+04	2.369249934286878272e+02	-4.339883243203010966e-06	-4.002107135777945501e+01
1.855626677707712952e+04	2.372530005264237332e+02	-4.329699295187520292e-06	-4.001871008070526869e+01
1.855628891993426078e+04	2.375750056986001937e+02	-4.319737642754846411e-06	-4.001635287040621591e+01
1.855631141993424899e+04	2.378959717034943822e+02	-4.309843498981570408e-06	-4.001396178672552395e+01
1.855633356279138025e+04	2.382056331233700348e+02	-4.300331222982554096e-06	-4.001161271795367469e+01
1.855635570564851150e+04	2.385090667444614212e+02	-4.291042007830089426e-06	-4.000926765903131610e+01
1.855637784850564276e+04	2.388062133904409166e+02	-4.281975676486290195e-06	-4.000692659131146200e+01
1.855640034850563097e+04	2.391016603681377717e+02	-4.272991010844008828e-06	-4.000455183362996792e+01
1.855642249136276223e+04	2.393859852209467078e+02	-4.264372615745294621e-06	-4.000221875644718494e+01
1.855644463421989349e+04	2.396638945692253060e+02	-4.255975255640803417e-06	-3.999988961489703598e+01
1.855646677707702474e+04	2.399353623502009896e+02	-4.247797895328665619e-06	-3.999756439077496850e+01
1.855648891993415600e+04	2.402003705090187964e+02	-4.239839302356497634e-06	-3.999524306598451773e+01
1.855651141993414421e+04	2.404630256529153201e+02	-4.231974972039645952e-06	-3.999288827612357267e+01
1.855653356279127547e+04	2.407149866013786550e+02	-4.224452951777012191e-06	-3.999057475830257857e+01
1.855655570564840673e+04	2.409604787917363069e+02	-4.217144911437710842e-06	-3.998826508587755058e+01
1.855657784850553799e+04	2.411995127673900754e+02	-4.210048960102609646e-06	-3.998595924117744715e+01
1.855660034850552620e+04	2.414358037398400256e+02	-4.203053732849782335e-06	-3.998362010817211853e+01
1.855662249136265746e+04	2.416618723651642995e+02	-4.196379157169099810e-06	-3.998132192735360491e+01
1.855664463421978871e+04	2.418815474289876590e+02	-4.189910313489137743e-06	-3.997902752158805129e+01
1.855666677707691997e+04	2.420948589800885884e+02	-4.183644947454905554e-06	-3.997673687361709227e+01
1.855668891993405123e+04	2.423018401227967047e+02	-4.177580768459524840e-06	-3.997444996628304636e+01
1.855671141993403944e+04	2.425057117293979445e+02	-4.171622487786662312e-06	-3.997212998740364753e+01
1.855673356279117070e+04	2.427000390623170176e+02	-4.165956931180189478e-06	-3.996985056991590568e+01
1.855675570564830196e+04	2.428881464188605719e+02	-4.160485662041557231e-06	-3.996757484191849130e+01
1.855677784850543321e+04	2.430700712744405791e+02	-4.155206470777691874e-06	-3.996530278665115787e+01
1.855680034850542143e+04	2.432486352163130334e+02	-4.150036683035158063e-06	-3.996299783023550845e+01
1.855682249136255268e+04	2.434182050087553080e+02	-4.145138352516158713e-06	-3.996073312910170472e+01
1.855684463421968394e+04	2.435816971208348320e+02	-4.140425968988977415e-06	-3.995847205073228281e+01
1.855686677707681520e+04	2.437391412358308003e+02	-4.135897739925172611e-06	-3.995621457875268590e+01
1.855688891993394645e+04	2.438905634610829907e+02	-4.131552020192445445e-06	-3.995396069688280960e+01
1.855691141993393467e+04	2.440382822439865436e+02	-4.127321629532566740e-06	-3.995167412284465769e+01
1.855693356279106592e+04	2.441776256944189072e+02	-4.123339539531717671e-06	-3.994942742998049567e+01
1.855695570564819718e+04	2.443109992145888896e+02	-4.119536021116867062e-06	-3.994718427868731681e+01
1.855697784850532844e+04	2.444384098192124100e+02	-4.115910141366668807e-06	-3.994494465305692188e+01
1.855700034850531665e+04	2.445617689643378299e+02	-4.112406981518896218e-06	-3.994267249956356380e+01
1.855702249136244791e+04	2.446771561500711130e+02	-4.109137210274644773e-06	-3.994043993412592641e+01
1.855704463421957917e+04	2.447865674532107505e+02	-4.106043463113565898e-06	-3.993821084691831658e+01
1.855706677707671042e+04	2.448899870575649516e+02	-4.103125604187336441e-06	-3.993598522239410897e+01
1.855708891993384168e+04	2.449873935331181372e+02	-4.100383691513991427e-06	-3.993376304509502717e+01
1.855711141993382989e+04	2.450801840294036822e+02	-4.097778033761886875e-06	-3.993150854147207696e+01
1.855713356279096115e+04	2.451653803858516483e+02	-4.095391781250977069e-06	-3.992929326758016373e+01
1.855715570564809241e+04	2.452444674757123266e+02	-4.093182746682450982e-06	-3.992708139481860030e+01
1.855717784850522366e+04	2.453174042201133034e+02	-4.091151678813378789e-06	-3.992487290807796541e+01
1.855720034850521188e+04	2.453851712118076875e+02	-4.089271062892782279e-06	-3.992263225349292810e+01
1.855722249136234313e+04	2.454455683979155651e+02	-4.087601627563822102e-06	-3.992043054781526479e+01
1.855724463421947439e+04	2.454996708976579214e+02	-4.086113195839985893e-06	-3.991823218310158694e+01
1.855726677707660201e+04	2.455474262218133106e+02	-4.084806972914685186e-06	-3.991603714458206298e+01
1.855728891993373327e+04	2.455887807614800238e+02	-4.083684229911707974e-06	-3.991384541756971771e+01
1.855731141993372148e+04	2.456241902611285184e+02	-4.082732676433823433e-06	-3.991162171713715168e+01
1.855733356279085274e+04	2.456524763596846128e+02	-4.081983878200227802e-06	-3.990943662223112653e+01
1.855735570564798400e+04	2.456742010339189051e+02	-4.081422578233470189e-06	-3.990725479503217343e+01
1.855737784850511525e+04	2.456893140413883714e+02	-4.081050097002074715e-06	-3.990507622118133213e+01
1.855740034850510347e+04	2.456978495113658880e+02	-4.080866335643027318e-06	-3.990286582681967076e+01
1.855742249136223472e+04	2.456994921187231569e+02	-4.080878358457915988e-06	-3.990069376880695984e+01
1.855744463421936598e+04	2.456943918075645570e+02	-4.081082841563253718e-06	-3.989852492131799977e+01
1.855746677707649724e+04	2.456825142878307133e+02	-4.081480810710575374e-06	-3.989635927031303453e+01
1.855748891993362849e+04	2.456638310127808040e+02	-4.082073169578265825e-06	-3.989419680183043226e+01
1.855751141993361671e+04	2.456378522719844000e+02	-4.082874987417886579e-06	-3.989200270045895991e+01
1.855753356279074796e+04	2.456053873498757412e+02	-4.083861426779836580e-06	-3.988984660621798639e+01
1.855755570564787922e+04	2.455660712153052714e+02	-4.085044078518379796e-06	-3.988769365285746460e+01
1.855757784850501048e+04	2.455199038734677401e+02	-4.086423202008318342e-06	-3.988554382672450771e+01
1.855760034850499869e+04	2.454659824390788856e+02	-4.088025891161960829e-06	-3.988336251528755128e+01
1.855762249136212995e+04	2.454060354640724029e+02	-4.089801136413654568e-06	-3.988121895284501051e+01
1.855764463421926121e+04	2.453392873101533098e+02	-4.091772459708358074e-06	-3.987907847690696883e+01
1.855766677707639246e+04	2.452657716393688929e+02	-4.093939323410552968e-06	-3.987694107412114164e+01
1.855768891993352372e+04	2.451855306343612142e+02	-4.096300984496735096e-06	-3.987480673120891339e+01
1.855771141993351193e+04	2.450971586190425455e+02	-4.098899296998738067e-06	-3.987264108411271479e+01
1.855773356279064319e+04	2.450035206604725033e+02	-4.101650612433324309e-06	-3.987051287022472934e+01
1.855775570564777445e+04	2.449033344433472053e+02	-4.104593272925411236e-06	-3.986838767660153593e+01
1.855777784850490571e+04	2.447966741711303769e+02	-4.107725755048557021e-06	-3.986626549025543653e+01
1.855780034850489392e+04	2.446817456855285116e+02	-4.111101453654999133e-06	-3.986411214222098209e+01
1.855782249136202518e+04	2.445622863681508363e+02	-4.114611324464908811e-06	-3.986199597973509157e+01
1.855784463421915643e+04	2.444366168064628653e+02	-4.118305439927864410e-06	-3.985988278578390975e+01
1.855786677707628769e+04	2.443048356440267810e+02	-4.122181677110967694e-06	-3.985777254766338018e+01
1.855788891993341895e+04	2.441670458969455524e+02	-4.126237806937978568e-06	-3.985566525273890193e+01
1.855791141993340716e+04	2.440209887906789277e+02	-4.130541242323946043e-06	-3.985352697103181185e+01
1.855793356279053842e+04	2.438714119058216454e+02	-4.134952954817730293e-06	-3.985142557183615253e+01
1.855795570564766967e+04	2.437161554501079479e+02	-4.139537406380141910e-06	-3.984932707814547115e+01
1.855797784850480093e+04	2.435553317121080568e+02	-4.144292158267558227e-06	-3.984723147759989104e+01
1.855800034850478914e+04	2.433863271104091268e+02	-4.149295537286138352e-06	-3.984510502790330122e+01
1.855802249136192040e+04	2.432146200244646934e+02	-4.154386271692669926e-06	-3.984301522300523857e+01
1.855804463421905166e+04	2.430376815206333561e+02	-4.159640086344975229e-06	-3.984092827437910245e+01
1.855806677707618292e+04	2.428556191086144906e+02	-4.165054713101107451e-06	-3.983884416993277711e+01
1.855808891993331417e+04	2.426685369901315141e+02	-4.170627985782639505e-06	-3.983676289763976541e+01
1.855811141993330239e+04	2.424733986974673314e+02	-4.176451552686791431e-06	-3.983465094516248683e+01
1.855813356279043364e+04	2.422764956409603769e+02	-4.182338618583266753e-06	-3.983257534655506049e+01
1.855815570564756490e+04	2.420748595136883523e+02	-4.188378636590174868e-06	-3.983050254422089154e+01
1.855817784850469616e+04	2.418685739389569846e+02	-4.194570064630366445e-06	-3.982843252639301568e+01
1.855820034850468437e+04	2.416542778961266151e+02	-4.201015067855369247e-06	-3.982633196136423237e+01
1.855822249136181563e+04	2.414388452174394217e+02	-4.207507905984773354e-06	-3.982426752194196951e+01
1.855824463421894689e+04	2.412189733651462973e+02	-4.214148783362805022e-06	-3.982220583191906371e+01
1.855826677707607814e+04	2.409947169024807749e+02	-4.220937049638408453e-06	-3.982014687978166734e+01
1.855828891993320940e+04	2.407661224441376078e+02	-4.227872302711441930e-06	-3.981809065407799153e+01
1.855831141993319761e+04	2.405294371451095685e+02	-4.235069825210599103e-06	-3.981600404446451336e+01
1.855833356279032887e+04	2.402922056650821787e+02	-4.242301236784703029e-06	-3.981395328103521791e+01
1.855835570564746013e+04	2.400507280514115962e+02	-4.249679970283697722e-06	-3.981190520987174608e+01
1.855837784850459138e+04	2.398050188675977381e+02	-4.257206651838716954e-06	-3.980985981976780153e+01
1.855840034850457960e+04	2.395510193183494323e+02	-4.265007182423359602e-06	-3.980778417429507954e+01
1.855842249136171085e+04	2.392967926081065855e+02	-4.272835064120254239e-06	-3.980574415572539948e+01
1.855844463421884211e+04	2.390383339400041791e+02	-4.280814270854810450e-06	-3.980370678477869717e+01
1.855846677707597337e+04	2.387756298990776145e+02	-4.288946383967961237e-06	-3.980167205048807233e+01
1.855848891993310463e+04	2.385086613346472575e+02	-4.297233193218302984e-06	-3.979963994194555710e+01
1.855851141993309284e+04	2.382329935649608501e+02	-4.305814161708815323e-06	-3.979757773590153391e+01
1.855853356279022410e+04	2.379573488203307079e+02	-4.314419065167105790e-06	-3.979555088827788012e+01
1.855855570564735535e+04	2.376773535937940096e+02	-4.323185155006234165e-06	-3.979352663385444799e+01
1.855857784850448661e+04	2.373929724311857967e+02	-4.332114880623540100e-06	-3.979150496195552478e+01
1.855860034850447482e+04	2.370994730835512598e+02	-4.341358889114888060e-06	-3.978945331685093123e+01
1.855862249136160608e+04	2.368061334110209941e+02	-4.350626408780862291e-06	-3.978743681942738419e+01
1.855864463421873734e+04	2.365082908179627736e+02	-4.360065542983243178e-06	-3.978542287267286071e+01
1.855866677707586859e+04	2.362059058417896154e+02	-4.369679055849517933e-06	-3.978341146613848878e+01
1.855868891993299985e+04	2.358989399877281130e+02	-4.379469731695435812e-06	-3.978140258943108165e+01
1.855871141993298806e+04	2.355822929044649072e+02	-4.389602658282729836e-06	-3.977936389220182889e+01
1.855873356279011568e+04	2.352659820946473133e+02	-4.399758948520634255e-06	-3.977736008457651451e+01
1.855875570564724694e+04	2.349449875648311092e+02	-4.410100692260757292e-06	-3.977535877576443113e+01
1.855877784850437820e+04	2.346192818616754039e+02	-4.420630530648481724e-06	-3.977335995559237602e+01
1.855880034850436641e+04	2.342834732449876469e+02	-4.431525505436491673e-06	-3.977133143513734836e+01
1.855882249136149767e+04	2.339482037316016942e+02	-4.442442227479813664e-06	-3.976933760167333531e+01
1.855884463421862893e+04	2.336081681959843195e+02	-4.453554418153039846e-06	-3.976734622649170348e+01
1.855886677707576018e+04	2.332633591343515889e+02	-4.464864274377369290e-06	-3.976535729963424615e+01
1.855888891993289144e+04	2.329137748701547537e+02	-4.476373849191473850e-06	-3.976337081119547889e+01
1.855891141993287965e+04	2.325536652809389864e+02	-4.488275595294653502e-06	-3.976135477020373798e+01
1.855893356279001091e+04	2.321944730343744538e+02	-4.500193443431258945e-06	-3.975937316802767185e+01
1.855895570564714217e+04	2.318305371852353289e+02	-4.512316256178319573e-06	-3.975739397471037506e+01
1.855897784850427342e+04	2.314618803745306650e+02	-4.524645447590800460e-06	-3.975541718055502116e+01
1.855900034850426164e+04	2.310824710509174622e+02	-4.537386185372925875e-06	-3.975341095020814208e+01
1.855902249136139289e+04	2.307043885283073053e+02	-4.550135112327887469e-06	-3.975143896379833564e+01
1.855904463421852415e+04	2.303216875919354152e+02	-4.563093730995662987e-06	-3.974946934761246098e+01
1.855906677707565541e+04	2.299344124678899846e+02	-4.576262849672169708e-06	-3.974750209215763874e+01
1.855908891993278667e+04	2.295426117204762022e+02	-4.589643151584647979e-06	-3.974553718799079860e+01
1.855911141993277488e+04	2.291399098276920938e+02	-4.603456175118457562e-06	-3.974354299062775198e+01
1.855913356278990614e+04	2.287391472693150263e+02	-4.617263899253741686e-06	-3.974158279845191544e+01
1.855915570564703739e+04	2.283340259429328967e+02	-4.631284278183352097e-06	-3.973962492938266422e+01
1.855917784850416865e+04	2.279246057074920202e+02	-4.645517671482672486e-06	-3.973766937417489231e+01
1.855920034850415686e+04	2.275042411762080974e+02	-4.660199175144048910e-06	-3.973568463842640597e+01
1.855922249136128812e+04	2.270863392779509127e+02	-4.674863047876674245e-06	-3.973373372035004536e+01
1.855924463421841938e+04	2.266643222625300780e+02	-4.689740968314547938e-06	-3.973178508854378066e+01
1.855926677707555064e+04	2.262382495380494163e+02	-4.704833350920950441e-06	-3.972983873395583032e+01
1.855928891993268189e+04	2.258081784467682382e+02	-4.720140692421469766e-06	-3.972789464758191968e+01
1.855931141993267011e+04	2.253671312278945607e+02	-4.735915740155933443e-06	-3.972592151913723058e+01
1.855933356278980136e+04	2.249291609776636562e+02	-4.751658457071534620e-06	-3.972398197858997548e+01
1.855935570564693262e+04	2.244873452000527436e+02	-4.767618417581952392e-06	-3.972204467938318828e+01
1.855937784850406388e+04	2.240417255429707950e+02	-4.783796734296946093e-06	-3.972010961270034102e+01
1.855940034850405209e+04	2.235850592112145421e+02	-4.800461034524323485e-06	-3.971814561305975388e+01
1.855942249136118335e+04	2.231318738838525348e+02	-4.817083898431303927e-06	-3.971621502081445954e+01
1.855944463421831460e+04	2.226749744651206981e+02	-4.833929920761268011e-06	-3.971428663477946941e+01
1.855946677707544586e+04	2.222143772293375434e+02	-4.851001252672515894e-06	-3.971236044632182427e+01
1.855948891993257712e+04	2.217500911114340738e+02	-4.868300358421274661e-06	-3.971043644685357776e+01
1.855951141993256533e+04	2.212745392542175864e+02	-4.886114675614432281e-06	-3.970848364857153001e+01
1.855953356278969659e+04	2.208028119903447930e+02	-4.903881855485373279e-06	-3.970656403645909194e+01
1.855955570564682785e+04	2.203273762739420647e+02	-4.921886300165970290e-06	-3.970464658770382016e+01
1.855957784850395910e+04	2.198482099538105956e+02	-4.940131878757757530e-06	-3.970273129389605771e+01
1.855960034850394732e+04	2.193574630347663401e+02	-4.958923109323180279e-06	-3.970078730700112146e+01
1.855962249136107857e+04	2.188706768872047235e+02	-4.977668126178190746e-06	-3.969887633245436831e+01
1.855964463421820983e+04	2.183800476480418524e+02	-4.996668207969370262e-06	-3.969696748775456996e+01
1.855966677707534109e+04	2.178855238468630660e+02	-5.015928721346028221e-06	-3.969506076466637978e+01
1.855968891993247234e+04	2.173870476489067585e+02	-5.035455396252434335e-06	-3.969315615499711924e+01
1.855971141993246056e+04	2.168764173915716640e+02	-5.055575918944081350e-06	-3.969122298224890244e+01
1.855973356278959182e+04	2.163697736980050763e+02	-5.075658054671873361e-06	-3.968932260876842122e+01
1.855975570564672307e+04	2.158589703771338293e+02	-5.096025715150973670e-06	-3.968742432425342059e+01
1.855977784850385433e+04	2.153439300840303474e+02	-5.116685955683888947e-06	-3.968552812068059410e+01
1.855980034850384254e+04	2.148161598541589115e+02	-5.137986680254698300e-06	-3.968360345651774423e+01
1.855982249136097380e+04	2.142923305345155711e+02	-5.159259375881803232e-06	-3.968171142416735364e+01
1.855984463421810506e+04	2.137640158153214145e+02	-5.180847541801944530e-06	-3.967982144881061402e+01
1.855986677707523631e+04	2.132311311266455505e+02	-5.202759213896786537e-06	-3.967793352258978956e+01
1.855988891993236757e+04	2.126935922503882068e+02	-5.225002602597634119e-06	-3.967604763768769516e+01
